var,skew,kur,class
18046.715211451487,-1.4965760145136189,-0.033871656788512235,yes
16284.298161801145,-1.5101074584537073,-0.08296850611258379,yes
15486.399891508465,-1.50762088904505,-0.06704124910651899,yes
14503.387220272538,-1.5028890781344606,0.007506146810062233,yes
13588.201628807867,-1.5180483014102766,0.07051043430180501,yes
13143.800386527131,-1.4985785552007902,0.0366897144816898,yes
13359.370548493207,-1.487577569083595,-0.04580483655533193,yes
14302.934971318504,-1.49829021160434,-0.08833971144735196,yes
15727.143768188402,-1.5055863104573008,0.006064623126788549,yes
16004.160318883585,-1.4966921068267096,0.08608485098859676,yes
15706.135962832255,-1.4923027558556101,0.050302165406778634,yes
14111.212784621544,-1.503672052216088,-0.029310881423400652,yes
14605.72693537056,-1.5044643542272504,-0.0460565701702009,yes
15011.610444593109,-1.4971280346356797,-0.08059166798631148,yes
14044.332269116328,-1.5051873151190358,-0.009046782526010377,yes
14344.443062955821,-1.5012688253726185,0.02187219196865361,yes
15125.290280690244,-1.5007496770881101,-0.02084123214347694,yes
15783.733690653025,-1.487002553777716,-0.055817640941580995,yes
15601.83316058123,-1.4908170017873619,-0.06909367576824062,yes
15976.235786293806,-1.4985102650164082,-0.08067898265031231,yes
15312.934330504555,-1.5115094150402224,0.026354756841886363,yes
17191.657952229914,-1.5049374804556301,0.07629806905985557,yes
17515.510494300022,-1.486558521500776,0.07615613738043643,yes
15860.289249275114,-1.490071283291393,-0.031673118380337484,yes
14627.527371594315,-1.490545727611176,-0.08283929507832256,yes
14034.049162123156,-1.4975781253034768,-0.04084215423672158,yes
13817.07408271177,-1.4908438538917848,-0.022212643148229544,yes
14373.255411894836,-1.4900017154939804,-0.020441604036038275,yes
9262.30336807228,-1.4638991543128894,-0.10421210871619081,yes
9706.72750887613,-1.4772812970634692,-0.08438436917348056,yes
11235.892665650514,-1.4776872286774783,0.004826802537969306,yes
13123.09262789731,-1.48381689257838,0.04312510090272344,yes
13169.62393680058,-1.4992012760233115,-0.00010591478850344892,yes
12362.663561783656,-1.4894016856955106,-0.03455959725476525,yes
11799.269563024387,-1.502482730411415,-0.039538669972300856,yes
11733.995460349679,-1.5030128376243244,-0.02250642413051157,yes
11027.66605351145,-1.4981066465690753,-0.00967571577240099,yes
10507.74112304608,-1.4792275944827462,0.05537822348721279,yes
10772.811048352272,-1.484955683379152,0.026707606724052292,yes
11646.031851874595,-1.4970104035308633,-0.005348233849591582,yes
13100.153287331024,-1.4864707666076156,-0.030302281091708683,yes
13747.98702504367,-1.5004549005667467,-0.039471995906864385,yes
13714.326922632328,-1.5068928254789968,-0.03206434565034931,yes
13446.130672118663,-1.5022326100570342,-0.018588547681103455,yes
12368.87259655396,-1.496118367175908,-0.024056038027807872,yes
12956.41961142407,-1.5053992360256316,-0.007792911946273005,yes
13100.91902207665,-1.4994166170571028,0.015786611816952588,yes
13045.479475213799,-1.5049316899896787,0.027214877828840293,yes
14537.187900710598,-1.4843635054379054,0.0376909526201655,yes
15888.513787585827,-1.4799647928956035,0.020288215387187284,yes
15745.443381203844,-1.4793346753468573,-0.029804654557499748,yes
12726.226606112163,-1.5021697422785543,-0.04738184168202504,yes
12761.27867509824,-1.5041886579772883,-0.05788015717350284,yes
12569.403933382117,-1.4903495642786917,-0.03853204011986691,yes
12222.405442073206,-1.4707692785258457,0.013406062139754663,yes
11854.937236567908,-1.4979516990409176,0.01702304444648804,yes
10576.492597687438,-1.4550893907438607,0.04400090868734958,yes
25157.193212663486,-1.483042290351933,-0.01238059474523996,yes
35886.54926440657,-1.5091981425717136,0.012828741394418728,yes
42446.89221011469,-1.5078074378008304,0.018414249723527617,yes
41105.57795743237,-1.5141279068091593,-0.016367328476038712,yes
37267.30390655928,-1.5195949383239296,-0.03719765472512655,yes
33844.19023752484,-1.5117557486479287,-0.02601408843961414,yes
28455.906112045646,-1.4891707408105308,0.010612856731384717,yes
31454.139656399813,-1.4956389741071914,0.006920009911069015,yes
32418.39572059901,-1.5070984385463455,-0.00611312350606156,yes
33331.290550372345,-1.5169545129587083,-0.040132236726240784,yes
34807.78158334177,-1.5176442776654604,-0.028905094759513007,yes
36142.72224959377,-1.5065291439367006,-0.005795461228106917,yes
32071.64485873461,-1.4944979343573457,-0.031499219015246514,yes
30112.68876904292,-1.5235149939999493,-0.03389158129855684,yes
31022.40673702233,-1.5063448364376641,-0.012179961959415182,yes
33046.43124718184,-1.503445509922053,0.03546683856699884,yes
33846.034998057854,-1.5094423300851665,0.01386742856485499,yes
34431.92227898839,-1.5193898546273532,-0.029963196825511972,yes
33026.00424565713,-1.5216380271878587,-0.020058410272443174,yes
32470.153674532667,-1.5271862562041822,-0.02844874015856002,yes
31785.376179616367,-1.5220670237069112,-0.03010247993689338,yes
31292.21435902932,-1.5168128490792678,-0.008100645650884399,yes
35683.133526085585,-1.5049340643127826,0.0233745232908863,yes
31953.808527007877,-1.50942448248575,0.012560649297621546,yes
30770.351650282428,-1.516835249048511,0.033787025615364556,yes
32216.699807061093,-1.5168681021869692,0.05534768181505239,yes
31238.122174268545,-1.5152935834002133,0.05747208289201008,yes
29776.63999106617,-1.5089518863029663,-0.026214896627875635,yes
33478.86300442018,-1.5113663208834913,0.004612117538524182,yes
32621.324095705186,-1.5058511115246462,-0.028441138006834857,yes
32633.17584229873,-1.5165356832637868,-0.03187651991216263,yes
33684.21912571952,-1.5184903278721267,0.0050431707307368,yes
35182.86780315963,-1.5096231356939798,0.02963294643371376,yes
35531.54793596751,-1.525532501650855,-0.028222610181319687,yes
34016.03835610127,-1.5193414243785879,-0.03789213770726719,yes
33513.888206329764,-1.5190971084079192,-0.018165617362367097,yes
40399.831582812505,-1.5211936304416969,-0.026705377081252802,yes
39143.649899226904,-1.5196946774445996,0.0039024381196715585,yes
38264.74414704311,-1.5173554933285076,0.009836634069066529,yes
35973.22839725128,-1.5311781569291334,0.02530698784360567,yes
33036.505342455624,-1.5144450083443148,0.006696140247337175,yes
30982.43647498388,-1.5252927867944948,-0.049737776747107096,yes
30554.143004844074,-1.504566926195849,-0.043737066989160606,yes
38439.466935165285,-1.5155537761269584,0.03257987361622005,yes
17474.552699761705,-1.480348862669513,0.1161355371936171,yes
18198.78139120568,-1.4794030012026058,0.09304207431028506,yes
17107.540886010956,-1.4756840434859213,-0.03862344721007637,yes
13421.778477000304,-1.4796666839717414,-0.13188041625655372,yes
10127.21575969833,-1.489267953765318,0.10913528883352525,yes
10073.550965199374,-1.4739522034823325,0.09154039249783448,yes
11372.94606339113,-1.4663941278227994,-0.08320783289291318,yes
12963.206503617326,-1.470356298055127,-0.15930461872177362,yes
15141.024899892715,-1.472850950869938,-0.04612380649426643,yes
16493.70471656745,-1.4992849188364865,0.007471766564531914,yes
16945.61273620268,-1.4929796688722263,0.07054979401033415,yes
16276.148609503509,-1.4815606133369674,0.059410845712052344,yes
9774.502409709425,-1.429644778981818,-0.10007059089661034,yes
12170.373243203723,-1.4553563583458635,-0.15899861661235173,yes
15501.371832575793,-1.4898578176842352,-0.0671572748866755,yes
16387.897072276388,-1.4783612468364669,-0.09536306823745345,yes
18728.901348221552,-1.4857882400765634,-0.03344881657599078,yes
21154.890040344282,-1.4913117944443828,-0.011865704918725652,yes
20809.35443315928,-1.5009552088768585,0.009203353986227075,yes
3642.228811039262,-1.4825491731669722,-0.056940138958082503,yes
3821.271263373258,-1.4596790408358717,-0.060809587274863006,yes
3816.479813298196,-1.4573056545679361,-0.08005778407027526,yes
3838.653510099575,-1.4576832919156855,-0.03529021155140179,yes
3691.471142082633,-1.4720328039983237,0.06372271740506204,yes
3360.8835394927873,-1.46102778034462,0.1300623169170058,yes
3251.743004889966,-1.4593249141845217,0.12814632549071234,yes
2697.5838042215682,-1.4387533709421574,0.039345968111098535,yes
8101.290681944671,-1.4949274567860888,-0.016147872583304537,yes
8251.180184277702,-1.491399316123919,-0.016084187936423806,yes
8180.13394308477,-1.4939754175913769,-0.025709668191473235,yes
8038.045691515959,-1.5022649337441127,-0.020793928483745144,yes
8088.851777392025,-1.4919510743818523,-0.010568912274453732,yes
8162.148551848129,-1.4859926094402247,-0.02009694367060706,yes
8051.995226276421,-1.483192978590481,-0.02204840156046953,yes
8081.378422851545,-1.4845360301677277,-0.022293566554571716,yes
7852.411348571615,-1.4857213672191831,-0.010688601255659767,yes
56028.00441789515,-1.4886317841069512,0.010099491203942434,yes
56341.08116332734,-1.4904773040508512,0.007031510929108713,yes
56350.93826911646,-1.4914521468205455,0.010134178845659862,yes
56560.84653514153,-1.4960211924760207,0.008206052474687323,yes
56118.02598249448,-1.4948719616942672,0.006053631773780026,yes
61165.74446016221,-1.2835849352083624,0.029072373932241203,yes
56783.718306104085,-1.4899611755870181,0.008762900194560518,yes
56150.585509501965,-1.4922001294503395,0.015038930876291658,yes
56508.232811429094,-1.4893971369343744,0.011661161662704107,yes
56742.433180447624,-1.4913710998975307,0.01086326475315444,yes
56567.80823760493,-1.4885132756527053,0.0136686850757348,yes
56733.17984151114,-1.4911277078297516,0.0119465231728349,yes
56413.74089206283,-1.4954058742685747,0.01176801013239729,yes
56707.971556259334,-1.4943688222168428,0.010022909822466333,yes
57029.46136704427,-1.493926756433005,0.012380423422916906,yes
56400.475653625035,-1.4867394818167758,0.011688616174945562,yes
56663.95263039302,-1.4831371980566954,0.011485012159047325,yes
56834.46918163294,-1.4990366538272233,0.01128941564357364,yes
1029811.4814490704,-1.4924439920939871,-0.010234206393454423,yes
1029358.1359186808,-1.491157706744984,-0.008043269962596515,yes
1029708.9596080836,-1.492600557895772,-0.00885725275062858,yes
1027729.8015318364,-1.4895793856946344,-0.008145770465864635,yes
1030066.6483527964,-1.489320433924682,-0.00818474584709528,yes
1028004.5779420002,-1.491367021787873,-0.010372715005291484,yes
1028069.8235262771,-1.4904441173460519,-0.010469228127775128,yes
1030069.7773706916,-1.4897019652088999,-0.010709095635247438,yes
1025558.5308975321,-1.4889827512671998,-0.00957019616929206,yes
1029509.7798406819,-1.489943861417083,-0.0093497902630733,yes
1029988.5302925692,-1.4909185754331111,-0.008871305339039811,yes
1029679.1952855834,-1.4900794332632852,-0.010066774796438097,yes
1032104.2412222433,-1.4899352538881976,-0.00846516408929627,yes
1029286.9638917303,-1.4903620231663277,-0.008840550169049896,yes
1027524.8115665028,-1.4896692042685358,-0.008500145403074939,yes
1025938.6343602152,-1.489716017109959,-0.010071966510301665,yes
1026532.029898966,-1.4897092184026275,-0.01016126793113705,yes
1025522.919718277,-1.4882421041436178,-0.010527520146044918,yes
1025322.9204490869,-1.4918365424208353,-0.009129240731589841,yes
1022698.7893589943,-1.4903346799452923,-0.00969302655609695,yes
1022574.3330748715,-1.4887093236129632,-0.008908792420516856,yes
1020457.7078086089,-1.4931382027457876,-0.011913653891890705,yes
1026125.4102916468,-1.4873596636161854,-0.0065906709632226725,yes
1022997.1028248643,-1.4919678260942961,-0.010218264654866567,yes
1025358.1780900779,-1.4909022986566087,-0.010330042570660228,yes
1024083.0053126673,-1.491592472855124,-0.009139896577690964,yes
1026432.0516179303,-1.489304013307973,-0.009374470017059277,yes
1022430.556022518,-1.4899708276398747,-0.010164524217060836,yes
1020149.3862824223,-1.4916288782140057,-0.010162225564469345,yes
1023192.4233567044,-1.4908332617019984,-0.011249872603682019,yes
1022246.3284862572,-1.489507522350535,-0.010055625484795305,yes
1021709.4149843499,-1.490391365974979,-0.009678791936371762,yes
1023642.9437960607,-1.4924463383091637,-0.009800488073545515,yes
1018836.165265359,-1.4912760461795453,-0.009114277323185802,yes
1028562.8712950565,-1.4926567419991432,-0.010785540448505234,yes
1023479.0716808548,-1.4908919839851784,-0.00904687972667818,yes
1022943.2954212902,-1.489138521593217,-0.009654858889233333,yes
1024914.4667106022,-1.4919377754980967,-0.00985212057287933,yes
1021291.0574503081,-1.4915804750064299,-0.010649032714235217,yes
1022632.7015623476,-1.4889934603992476,-0.009374371589449941,yes
1021393.3671853368,-1.4912663314378354,-0.009637796765000609,yes
1018875.083048332,-1.49026749280468,-0.00949759909524905,yes
1018775.5720340234,-1.4896746744669642,-0.010093888392389625,yes
1018417.7498496394,-1.4917241884653865,-0.010591265995256,yes
1019563.0016086136,-1.490256764119133,-0.010821253460908122,yes
1004937.6454607231,-1.495443170001845,-0.005583082626709214,yes
1007146.5378166372,-1.4918939952358552,-0.007387170475847894,yes
1003529.40755187,-1.4926779293293664,-0.008951345684898474,yes
1004599.1471605527,-1.4915412166075854,-0.007661746608438506,yes
1006385.2304030035,-1.491349540202039,-0.007856287147942075,yes
1005531.7358803139,-1.4891348180985944,-0.00789641511374464,yes
1003807.378221221,-1.4894923984032002,-0.007632807175278405,yes
1005917.4076975165,-1.4901546854726744,-0.00735105895760227,yes
1003116.1741190443,-1.4866072644117867,-0.008996402473402249,yes
1005708.6102872896,-1.4885397557130866,-0.008807736230526157,yes
1002657.5046963403,-1.489508715486474,-0.008575517793252732,yes
1002878.5596412679,-1.490544084326112,-0.009670320023279697,yes
1009911.7562097732,-1.4888996892058928,-0.00932154337288122,yes
1003460.417912769,-1.490839281490753,-0.008390659468764284,yes
1004213.3050423919,-1.4916306664434895,-0.008662228145371598,yes
1002870.3557192339,-1.4914168968282964,-0.00853730975626429,yes
1006462.1189527696,-1.4924390842233604,-0.009003507248648252,yes
1006340.8489283646,-1.4899715422645081,-0.009490656117084264,yes
1005051.9971014473,-1.4900109831751236,-0.009803832575908623,yes
1005918.5894016671,-1.4923009077940383,-0.009013719928227202,yes
1000219.6535945127,-1.4920874409491405,-0.010158904586162417,yes
1001767.1812050703,-1.4900277226261125,-0.008961156257253123,yes
1002933.6732187334,-1.4921326146856182,-0.01033303153707929,yes
1002122.4967014687,-1.4915721161896098,-0.010384211316543315,yes
1010710.7746312745,-1.4932018254939483,-0.00869504298494873,yes
1000628.9042963414,-1.4899127176293534,-0.008590077941146806,yes
1002756.7822494225,-1.4891198525222789,-0.009088460607800953,yes
1002739.2128100782,-1.492254453812419,-0.00898131888902263,yes
1002841.5715239155,-1.487891467897682,-0.009047776016030252,yes
1000935.3079762853,-1.4896998756490432,-0.00924233785181014,yes
1003335.6995785439,-1.4898146500500495,-0.010383910964159849,yes
1004614.3150783626,-1.489717295775081,-0.009858833047281036,yes
1006791.30877029,-1.4908461321617752,-0.010495598404019842,yes
1000871.6493934831,-1.4897589860763054,-0.010679549516526924,yes
1004482.2851063319,-1.4885677953305394,-0.009450536090154234,yes
1000143.3695531135,-1.490514516306319,-0.008957134979206478,yes
1006154.3272560101,-1.4890216837474939,-0.01071753904815066,yes
1003749.6021796914,-1.490311253014943,-0.01144934723015316,yes
1001405.519977292,-1.4904732820737883,-0.010933670824955692,yes
1000249.2562946756,-1.4916407519285881,-0.00924710191415139,yes
1002178.3937250203,-1.491605024612325,-0.01156033754068632,yes
996644.0338893952,-1.4902284613677577,-0.010792250707726214,yes
997766.1781515125,-1.4885116045958255,-0.009919026246689312,yes
997724.0802613397,-1.4924848119823964,-0.009020008932371733,yes
1000297.9155281483,-1.4905865308939055,-0.00958745975801656,yes
999698.5795472257,-1.4919656990192995,-0.010761024987257646,yes
1000431.1402756537,-1.4915552608710294,-0.010187403466170834,yes
999931.6197390717,-1.4915565398450068,-0.0082990822154159,yes
999905.5238796589,-1.4915318199536405,-0.011387092687102697,yes
998876.4661560159,-1.4913667660445178,-0.009213379654216055,yes
1006149.2290599523,-1.490876182246757,-0.007105873607327092,yes
1007680.2719379088,-1.4908208191228798,-0.007842639104699185,yes
1008862.5007666987,-1.4907916383592374,-0.008413672663520501,yes
1007605.5248743922,-1.49171137396809,-0.008520966058489262,yes
1003687.7165031561,-1.4918504675599367,-0.009590459629260339,yes
1006525.4998026146,-1.4919334680627105,-0.007282694150264538,yes
1013472.1179620479,-1.4913126854059788,-0.008812467829517239,yes
1009397.3902679388,-1.4906355189004863,-0.008100914794795537,yes
1005532.3628083804,-1.4926912223714048,-0.00821897837141445,yes
958707.0564112577,-1.4917290142425197,-0.010413259145880286,yes
960098.9868858674,-1.4917967651408457,-0.009695659512844627,yes
961359.6446111556,-1.4912236154763463,-0.00968670764101787,yes
963194.2083919749,-1.491799222176935,-0.0100238605077131,yes
962348.8151411475,-1.491692208426869,-0.009815775871393352,yes
961667.9027682026,-1.488120476537577,-0.010403553567269712,yes
964277.5011020937,-1.4904040504465705,-0.009033178278206936,yes
960129.4545384548,-1.491243717177195,-0.01028085026316161,yes
961651.457236759,-1.4907376521818563,-0.01022820509176372,yes
957863.1229144757,-1.488875187431819,-0.009713587060813818,yes
961152.469026662,-1.4933774233290114,-0.009939335291334603,yes
961069.0155528854,-1.4917022434818041,-0.010148624805977731,yes
960181.2900284646,-1.4934051378503503,-0.009898710180220899,yes
961543.3712494314,-1.4936298269631747,-0.008278528893708344,yes
963103.0242035477,-1.4935168866200066,-0.010321483268654133,yes
962117.9539883772,-1.494457928461597,-0.008929979006664729,yes
961926.7321533537,-1.4927338057284953,-0.009162969182341926,yes
961620.3707734648,-1.4941921389697688,-0.009754170644228241,yes
963554.5851155046,-1.4932440921428625,-0.009699429158111974,yes
960173.4003739131,-1.492315473574454,-0.0091709522328858,yes
960186.6822857425,-1.491219684517627,-0.009007503638219928,yes
961924.5961750686,-1.4910865622047897,-0.009605370159042776,yes
957977.0345245979,-1.492472229764632,-0.009605824995680783,yes
962065.8291433706,-1.490416059965296,-0.010057956232330238,yes
962501.2011497411,-1.4923103328729446,-0.00937166299110521,yes
960454.5655181566,-1.4914532566527097,-0.01031181839896674,yes
968048.9107055963,-1.4893317127728325,-0.010372700272050006,yes
963095.0926115828,-1.4893225954564442,-0.008741287182324402,yes
962514.1387755759,-1.4910736238505586,-0.01118268912809572,yes
963592.2953942448,-1.4899758292291059,-0.0102983576051382,yes
964363.5962668573,-1.4906597684818117,-0.011480746807090434,yes
702960.3779541894,-1.4966111720272262,-0.009297801484560528,yes
706044.4320066088,-1.493587330516123,-0.011548510685659296,yes
696579.047738311,-1.4917123777710204,-0.0089111907627945,yes
713854.5769742667,-1.4959528047937203,-0.009157881920601863,yes
723227.5600272561,-1.4946047174401411,-0.009244914494028141,yes
724041.3979458618,-1.4928213544929245,-0.010075758072872355,yes
724245.1990195677,-1.4958472510007368,-0.007998797613648639,yes
721934.9137917438,-1.4936779876787643,-0.009886241247755357,yes
724590.8591584287,-1.4932343882515442,-0.00915269006092869,yes
724011.180041331,-1.493445505326245,-0.009214012873653341,yes
725880.2676387085,-1.494492100337959,-0.010082523751124018,yes
722413.688387693,-1.4949836793614337,-0.010497820758465266,yes
726346.1028959935,-1.493240013838704,-0.010165379300825408,yes
719644.7880154937,-1.4954239595080685,-0.009471083224630718,yes
649727.4887916183,-1.488847045638888,-0.007619016684613671,yes
692639.697370343,-1.486743828840295,-0.009959943591264543,yes
721215.680154975,-1.4948928733285838,-0.008468140764795415,yes
712489.104726735,-1.4958831368596106,-0.00944984354580424,yes
719199.582772318,-1.4953413336859112,-0.00980186936150325,yes
707764.1340707717,-1.4942209192172367,-0.009597589906125662,yes
721571.7994083714,-1.4961338314194574,-0.010531274697876698,yes
720045.9015486538,-1.4945550456299652,-0.008174480871592607,yes
723540.3174863162,-1.4963506229902581,-0.00975031045309929,yes
686091.7082810084,-1.4927625983437347,-0.010944716981286611,yes
718196.9432010954,-1.4947557116207904,-0.009508317225018423,yes
728551.4817289868,-1.493956039142418,-0.009617770905996076,yes
730991.1640753712,-1.496086041697031,-0.01032268202063674,yes
727133.0664318831,-1.4936740104203534,-0.010444204838428579,yes
721273.214848574,-1.492803620842206,-0.009306051870319052,yes
720438.9344835051,-1.493887612189388,-0.009112220685903623,yes
720433.0875105684,-1.492923298818564,-0.010227425069269208,yes
723474.389122062,-1.4908202495449803,-0.009479308752625348,yes
725123.4007347483,-1.4951223601293149,-0.008759916474860605,yes
728369.0390977694,-1.4929347636814083,-0.010218514264759037,yes
727848.7913839405,-1.4955578222588368,-0.010485168246305472,yes
730090.8458372969,-1.4934846654677216,-0.010028703883420325,yes
729112.6581196793,-1.4923478667517638,-0.00900687548670142,yes
725453.9123906483,-1.4944579891730592,-0.012132732854591734,yes
720497.1420824698,-1.4946561989432938,-0.009661114267457969,yes
719747.1923226315,-1.4961434866064833,-0.009865977070296123,yes
719589.4695033154,-1.49119876981479,-0.008042187671615547,yes
718761.5768762368,-1.4935187002801509,-0.010139410346415847,yes
719744.5756287039,-1.4945676376271115,-0.00841246217067096,yes
724463.9374984015,-1.449580313336125,-0.0096940103392261,yes
722304.7793106049,-1.4940664338689829,-0.012844632541569664,yes
722105.820871104,-1.4953268558346142,-0.010209491995757571,yes
721512.5401436149,-1.4948626637356774,-0.008357577591570665,yes
720829.942216573,-1.4949196855159066,-0.009365742602414512,yes
721246.4073597526,-1.4944284841671056,-0.009975796584954257,yes
723017.4281267768,-1.495984206913073,-0.009519033534277906,yes
724442.9899534632,-1.4959438217726317,-0.00978846268453779,yes
728786.0691342601,-1.4961148632466477,-0.009496868238890037,yes
727954.4405675812,-1.4958969843038286,-0.008757090999110971,yes
728629.7757249972,-1.4936726086424992,-0.010064548946579968,yes
1208858.333101539,-1.4883356330961073,-0.009524899040654258,yes
1209208.5544370664,-1.4906101782050243,-0.009165088665085249,yes
1215250.8684747117,-1.4888407263534307,-0.009208943553219264,yes
1212402.9969442638,-1.4911109723039606,-0.010882841382697999,yes
1210855.32284535,-1.4893613477367054,-0.010315051805649999,yes
1206592.7761946227,-1.4887986817799304,-0.008966225169788334,yes
1207700.3292981777,-1.4904771297391406,-0.009491695070034677,yes
1207657.712544958,-1.489929591225865,-0.009499283550375548,yes
1208337.7872720815,-1.490527069933405,-0.009378442662808554,yes
1208500.7564668572,-1.4899703599439125,-0.009013567972923292,yes
1211808.985208473,-1.488348116158147,-0.009658499949214494,yes
1206384.6109453486,-1.4901449856671969,-0.00886918893876011,yes
1204914.4627648387,-1.4888109187137157,-0.008974344293055454,yes
1206127.9296880397,-1.4904169733192671,-0.00750146413253958,yes
1204165.5491724617,-1.4874636578333018,-0.009129871610196787,yes
1203688.2264549593,-1.489897169045386,-0.009214141641268908,yes
1203914.991551062,-1.4852205232715616,-0.009486383848179748,yes
1203192.0484436755,-1.4883898369353006,-0.00959861552806631,yes
1205382.636685378,-1.488748240233505,-0.009417175914756545,yes
1204191.2487450591,-1.4891339539346156,-0.009602164473704789,yes
1204380.190225646,-1.4860811318975846,-0.01078500412011248,yes
1203464.4236629112,-1.487379646519034,-0.009551492824965641,yes
1203267.880212654,-1.4879138246586938,-0.009467319419239869,yes
1206762.5461209125,-1.4888683766016735,-0.009988534125567909,yes
1210428.670415388,-1.488873064750059,-0.009294281536570373,yes
1206080.1206980143,-1.4909138688103023,-0.009616829589083352,yes
1203805.6412277329,-1.4898669772058302,-0.010053834539470275,yes
1202023.0280266802,-1.4897179230461004,-0.010195036943887285,yes
1200642.4317922124,-1.4917702027286657,-0.010172938689521084,yes
1204493.448881663,-1.4886955312421122,-0.011092877850746946,yes
1204095.962519584,-1.4897140382131149,-0.009341248738244878,yes
1206743.646581883,-1.4905456826389227,-0.009885218481116554,yes
1209124.1754100174,-1.4900630430337398,-0.010687966828185316,yes
1210934.2004950666,-1.486828368594583,-0.010705588884899888,yes
1209388.5907593695,-1.4894025861129279,-0.01046447879531286,yes
1210032.234304842,-1.4883714244161346,-0.00969624068907983,yes
1210876.196081251,-1.4897723078660356,-0.010935770636069778,yes
1205092.0033245313,-1.490349442303037,-0.009730582574585459,yes
1208397.3157381103,-1.488216124007617,-0.010755601783037291,yes
1208550.3429959044,-1.486832980974434,-0.010416100572224371,yes
1208151.1671795177,-1.4897574272381162,-0.009804750737621368,yes
1201246.1662659473,-1.4873500518776053,-0.010536317925956763,yes
1210747.7176270569,-1.4896360706646503,-0.009168421503127562,yes
1211261.5937444987,-1.4876057559846108,-0.009096364708666618,yes
1209934.023002658,-1.487889656849937,-0.010410278842684478,yes
1216290.551275819,-1.4894658955315914,-0.01038114779374283,yes
1211599.8409259215,-1.490619627946836,-0.010243299011335437,yes
1215305.2180810906,-1.4891517683177433,-0.009607089583362463,yes
1211591.1279445472,-1.4895871383241086,-0.010318896408821736,yes
1210368.8590343453,-1.48795151364506,-0.00981706559221826,yes
1208424.820769705,-1.489989999798806,-0.010815311249080934,yes
1207718.1599064353,-1.488007412739797,-0.010560017442811202,yes
1221416.0475603438,-1.4893733652486865,-0.010105076092382,yes
1221976.030979372,-1.4880765898230925,-0.010790004419829791,yes
1216887.8543160441,-1.490501809155488,-0.010889584471742608,yes
1215720.9924678893,-1.4874795684864621,-0.011860988231770179,yes
1214707.457415105,-1.4895534954000755,-0.011124121468706935,yes
1215250.8566856608,-1.4895907840123839,-0.009467981889275242,yes
1219197.3205772855,-1.4898204625952078,-0.011451506467311683,yes
1217083.2261370902,-1.4892547110617054,-0.010617817142278019,yes
1218523.4849871635,-1.4895798040797843,-0.009447085797290535,yes
1220774.4484550194,-1.489198170871142,-0.012075898166666202,yes
1222226.792310021,-1.4885233984587432,-0.011142569843779678,yes
1218538.4977251817,-1.4899028384464887,-0.011243376932517736,yes
1214305.5851424634,-1.4912011332169357,-0.011040890252643558,yes
1214273.6464777137,-1.4904960025598404,-0.011375639794680691,yes
1220252.0790985622,-1.490012514255329,-0.012110919308765893,yes
1225041.642580327,-1.4893446104223118,-0.01200495964101462,yes
1223265.8859327992,-1.48901820757347,-0.01012130183493366,yes
1216728.613449242,-1.489018276916443,-0.010892698376048487,yes
1222086.3741287412,-1.490273570242786,-0.009934128748899143,yes
1217227.3404618076,-1.4892664987352202,-0.010135736861814291,yes
1216588.5516415788,-1.4891213344571053,-0.010562290522248299,yes
1217897.3302998813,-1.4896632814049073,-0.010060685302736218,yes
1203903.3598718804,-1.4881614924002442,-0.009013042069274457,yes
1207864.7284459008,-1.4895362331706299,-0.009339516883991334,yes
1202985.7537866249,-1.4865104982529567,-0.0091928070824086,yes
1209847.8510224028,-1.488823543292637,-0.011972847925269734,yes
1206354.2596519766,-1.4873948743745589,-0.009718890838177525,yes
1205341.8245556708,-1.4885954072763046,-0.010127333164971917,yes
1205016.6190239354,-1.4879027294586158,-0.01013127452592477,yes
1205052.873003762,-1.4884224593295698,-0.01005909778060399,yes
1204929.8265470532,-1.4884477926140964,-0.009272255537531407,yes
1202904.0788035374,-1.4876258623527225,-0.00974284111459011,yes
1204748.858870923,-1.4891954446202762,-0.009363604761328264,yes
1200939.3140993202,-1.488248632253999,-0.010225986990009964,yes
1202695.467222499,-1.4882955019263884,-0.009648791523774222,yes
1200285.0069902572,-1.4887869838986443,-0.010869010802952803,yes
1197965.4841251457,-1.4884059540394832,-0.009919017122799509,yes
1197790.8443609886,-1.486980868749067,-0.01082256170945802,yes
1200800.4708899842,-1.4870760749967882,-0.01046860030080552,yes
1200073.2746902176,-1.487742307845961,-0.010146840313382602,yes
1198327.8949302626,-1.488471254925736,-0.009107911815955562,yes
1196775.2960915286,-1.489866186027063,-0.009798823774152974,yes
1196375.9117665528,-1.4900314802978465,-0.010437797281532815,yes
1196317.8153502995,-1.490541308249471,-0.010246682940953305,yes
1198847.2635375448,-1.4890147026778908,-0.010083910679780065,yes
1198071.0002565312,-1.4912350535616297,-0.009105305926726084,yes
1199611.4855151293,-1.4898410662352282,-0.0106052490593935,yes
1195013.9826341688,-1.4892025345353068,-0.009928064965522157,yes
1193040.5778130281,-1.4900762328198494,-0.009257581914926143,yes
1192780.9548338098,-1.4896173182800971,-0.009635686809445388,yes
31444.70557721507,-1.4339505283113128,0.03233924620546452,yes
33589.13334529351,-1.43166705185805,0.04313776619679405,yes
31381.53428928528,-1.4281160680650955,0.06214916429687493,yes
32646.34821163258,-1.335488301267708,0.04992687940298923,yes
34449.58090378535,-1.416438559074125,0.057855512970455214,yes
30767.972462592545,-1.4062841704688993,0.16820772598996764,yes
28758.907618791658,-1.4236860219138563,0.12982674383381815,yes
32961.11233333908,-1.3169078216885433,0.08554841891301436,yes
31005.795360967357,-1.4383960726226435,0.04878394670977612,yes
29396.582593245697,-1.419163707575556,0.051478251808219105,yes
30573.193328399284,-1.2923593382349026,0.032483704539003906,yes
31583.12173116646,-1.4096377236398072,0.06058677829533245,yes
31735.296864817916,-1.4017716723874316,0.11709108784301499,yes
28750.298176039578,-1.4091728591502746,0.12275485961093358,yes
34600.14698531114,-1.3266971469268,0.07579777734887042,yes
32319.02056869671,-1.4283991609149076,0.008932536339268457,yes
30301.80822842075,-1.4321732605679598,-0.015882130359106454,yes
27176.60469619137,-1.4150811680208726,0.011810312936662896,yes
31748.989866410342,-1.4341573988291054,0.02587821518551433,yes
28196.829704415177,-1.408982730358863,0.06687872429899638,yes
27953.427365968695,-1.4402184880971727,0.10070756030640722,yes
33366.66284629189,-1.3238424124093875,0.09403493026693893,yes
31590.767258817614,-1.4346600552192774,0.06006105130718764,yes
30142.78361253915,-1.4279600434603827,0.013535905669345812,yes
30418.269885889513,-1.4222884050492122,-0.015368686371294075,yes
31940.625534713898,-1.4303365294896775,0.025419827037997098,yes
34627.28312340318,-1.4397565227051579,0.05069284216937464,yes
34927.01115238335,-1.3633221504321837,0.09021043663731591,yes
38047.8724559009,-1.3915787448295633,0.08586808204037784,yes
38702.98653789561,-1.4321735655499575,0.06285076670182593,yes
31153.94427654615,-1.4012565093486642,0.04432943961652074,yes
30744.54596212988,-1.2865297987119708,0.019457170088909747,yes
30074.527557818423,-1.419112194086883,0.0014507072497507553,yes
27104.41861137608,-1.4247216699277334,0.05627799361338824,yes
24187.94279942353,-1.3757973283913063,0.1035664694961829,yes
29154.602617050114,-1.35126293904088,0.038628838129604395,yes
29196.045189754775,-1.4304671124848256,0.09260728369775068,yes
26761.31015666031,-1.4246681066526314,0.06581013895920773,yes
27317.153879029534,-1.432908783584274,0.043005550091651655,yes
33123.51340520176,-1.4242883858051212,0.04851964646437991,yes
36493.95018769276,-1.4309685033963486,0.03807568077774464,yes
38968.883757723765,-1.308421413179673,0.028043709995653546,yes
40346.490234170524,-1.429870799890453,0.04198575778120396,yes
34934.74438374011,-1.424923631586576,0.06842360931181014,yes
34021.44805775759,-1.4218641584934102,0.08442377403019079,yes
35943.663218733294,-1.2801403404261054,0.08089495228032928,yes
37937.67150939717,-1.4313486957882409,0.0650517302692566,yes
33838.1155099458,-1.417036166079093,0.05445075051935337,yes
30235.25243335686,-1.368120408114788,0.074575815191343,yes
32067.721274602707,-1.379292467103634,0.04260442723688127,yes
30876.60652247654,-1.4432908194085468,0.03670035656145963,yes
28692.2138610764,-1.4290044239817599,0.05002277616899892,yes
28454.388689037867,-1.4180218911181317,0.047278400948876934,yes
30109.803451762953,-1.4257848050576818,0.04664271176089698,yes
32028.960689228523,-1.4242143462415013,0.032449466551791026,yes
28495.285031866148,-1.4143186168095185,0.043617341888568445,yes
33497.02729920508,-1.4293302397470982,0.028518620215299734,yes
29827.10679275146,-1.4243893909749592,0.040722453649552875,yes
29179.736319041273,-1.420848409258901,0.045337618046438405,yes
32304.490580786365,-1.189874634468171,0.07212680651558938,yes
32631.750699796634,-1.423154964499033,0.038640961252609046,yes
27489.103175428078,-1.4278810370783726,0.042363034632665095,yes
28899.871328584668,-1.4226094348305276,0.04104373759864007,yes
31839.849318164852,-1.437947366729685,0.03686421383904899,yes
30538.86629972144,-1.4298897821442726,0.042180664183946205,yes
26676.555190014536,-1.4264594070892433,0.05008984825104141,yes
31275.714904209934,-1.3236760024218397,0.042854620305388794,yes
31870.113026576095,-1.4280865082988166,0.03908523952710941,yes
33781.30117520587,-1.4381684055276795,0.03691974835776332,yes
31221.244630913417,-1.4267960682592824,0.03330497377388068,yes
32967.3913233132,-1.4332138863036508,0.03339120452964799,yes
32702.479686947234,-1.4328473984155503,0.04161614607024006,yes
32158.298173984665,-1.4376428814472675,0.049588541623690544,yes
81119.35142744757,-1.523788038527978,0.024529594262729264,yes
82753.80244340486,-1.523507423846634,0.017103092104074367,yes
79446.57233735378,-1.5247810253452196,0.01958875956403463,yes
82356.22917210007,-1.5240741645205353,0.022135984106037607,yes
88502.1592878125,-1.5199274749368552,0.016661374024310047,yes
92949.06425040214,-1.5218926692740542,0.018933513835857917,yes
92137.29517570735,-1.528905409211084,0.01736946664408836,yes
87618.52734094117,-1.5197485642737267,0.017790576129615793,yes
86456.51216175163,-1.5140444111640319,0.019867989660668762,yes
82924.06090113605,-1.5242075594795004,0.021259550322295886,yes
88801.64893876323,-1.5135989915381354,0.02367452688598965,yes
90308.90781157528,-1.5230915036512107,0.02046538899456549,yes
83170.44005484854,-1.5228741878172485,0.013517606121579576,yes
80855.13712882844,-1.5277459570507497,0.015265487892455517,yes
80540.87661146311,-1.5260473498448905,0.01088196684103461,yes
79696.73674178969,-1.524443806159922,0.013281946558119274,yes
81106.09279899401,-1.5286364319602868,0.01886871537723432,yes
81278.04974631584,-1.5270789523312898,0.016746045169741562,yes
87554.07844792039,-1.515198477073038,0.01118837218731843,yes
90508.322300692,-1.5261207266464836,0.00893237382009946,yes
89324.7752842842,-1.5224811561185851,0.007386003442918636,yes
88843.94430920985,-1.5254237736693375,0.012549412583790248,yes
86706.32486846772,-1.52310499868853,0.016976455356239664,yes
80910.73343034633,-1.525192181595344,0.013533475804395255,yes
85363.27188281674,-1.518608149039194,0.01688440195486815,yes
85064.83716954666,-1.5174866952446073,0.012222659116552369,yes
81975.78242292872,-1.519813489335394,0.01514299599679947,yes
79560.13325737836,-1.5224965605568155,0.014214237659438396,yes
79614.19597079293,-1.5236329353364177,0.01426648877625354,yes
80003.93444208617,-1.5247596880582481,0.016019569584436094,yes
78750.19497746247,-1.5274291052792413,0.013197095622820381,yes
78452.09791457446,-1.5277710821000932,0.013357220524015744,yes
83776.21303832615,-1.514030375154263,0.017417545295739155,yes
88887.5618213049,-1.521596198611004,0.01459047925769485,yes
88813.58524360688,-1.5295416292957393,0.012425164748509633,yes
87306.89798813639,-1.5240966025200942,0.014348090272274253,yes
88080.97902311059,-1.5209343175978405,0.011070492100141167,yes
84319.0857449364,-1.517027120671635,0.012591971763037025,yes
80692.15977995907,-1.5266323443183034,0.014899128900101869,yes
89368.91493473185,-1.5217601139045098,0.01644729589175472,yes
81714.26527167627,-1.5234356810185523,0.018901511263014214,yes
78601.96093297517,-1.5228243168326445,0.018828476187428948,yes
76920.56095407128,-1.519191500202232,0.019654552278209395,yes
77334.25065563527,-1.5258094006416278,0.02639351669963636,yes
89352.93165411576,-1.5022559641660904,0.022509304734295302,yes
91797.51208553194,-1.5216710339844068,0.01942962169276124,yes
83435.28613084933,-1.5208435203306494,0.017725990935425637,yes
86426.04206421759,-1.5220642426604938,0.0217194011888581,yes
87117.7698492833,-1.5252276893127277,0.017567207070797754,yes
86175.63660572309,-1.5219909847431463,0.01946449105575632,yes
80340.31298502212,-1.5138259957469447,0.01986929626825369,yes
84231.12906039311,-1.5248669035459637,0.01742261536786746,yes
80887.10159963975,-1.5184029166596797,0.010655861813634529,yes
80564.87915357857,-1.5142391424818158,0.01618246592493783,yes
78393.49744462929,-1.518682601340629,0.008421770839208038,yes
95459.62380818857,-1.5126595291015335,0.002846743748760982,yes
81520.12895898437,-1.5203267230074364,0.009952959338473932,yes
75210.32772372829,-1.5276688526418036,0.017932499070308583,yes
86099.70027768608,-1.4991646428126757,0.011667841016687797,yes
87175.5445372076,-1.5084634660176992,0.016254611012909998,yes
79182.93050821954,-1.5165414627556963,0.013016562959535839,yes
84148.63298527685,-1.5229863331572553,0.014033779313247195,yes
81071.96186153204,-1.5202155816098555,0.016291071963133057,yes
84661.15241872332,-1.5195258358483217,0.0139469493264485,yes
80813.59945820573,-1.5174487235154341,0.014141659343710639,yes
99810.98240707743,-1.520191364034663,0.005842957751390727,yes
90127.98005035259,-1.5167627814658677,0.007215313037144643,yes
80272.10714354321,-1.5207357019028975,0.008600760840003562,yes
78589.0067917905,-1.5084126105785227,0.0147030843302747,yes
102347.0302674151,-1.5171403872396099,0.02319507003130381,yes
89199.79317260467,-1.5235992443939799,0.030140159553012604,yes
79010.09515656804,-1.4901168259373914,0.03170060258338758,yes
73968.96464495265,-1.5249013461611178,0.024735711946726763,yes
74234.26167180463,-1.5310296065907911,0.012707267876027162,yes
72059.86502196906,-1.5232581923407473,0.009730667727077468,yes
75080.12521008975,-1.499936552428575,0.016077553956534388,yes
97721.84974777518,-1.52261583066048,0.006742733382305391,yes
94713.44912802713,-1.5276167232332192,0.011188480966765883,yes
80463.82202743561,-1.5183478734707703,0.01991290115865364,yes
78983.99100936681,-1.5193227125159163,0.024382227855574607,yes
79420.1975647971,-1.514878787876538,0.024132779797115762,yes
78359.60917624042,-1.5115035591333723,0.0245728314882132,yes
77977.32611877308,-1.5120049541927714,0.02304670788137513,yes
74904.30342228143,-1.5213648376698072,0.02530209179632865,yes
75718.47830229314,-1.5223608884214814,0.023607333200508496,yes
74949.08506216263,-1.5209420549241426,0.02696624655683811,yes
72838.53207169808,-1.5212442884360877,0.0242287904617084,yes
68838.96904474648,-1.5203576316715655,0.028932789643785796,yes
73302.33655046581,-1.5041831335217224,0.026682244645452192,yes
82386.84804745839,-1.5177532447355673,0.016174830508506075,yes
81951.76738313769,-1.5199714587839637,0.014508934736213768,yes
81232.52084120235,-1.5268483240083661,0.013899884284738293,yes
78930.03030157078,-1.5241279251135371,0.015638489975705168,yes
72686.0745373086,-1.494758975833847,0.029608019159089723,yes
73375.1642232035,-1.5061229961683993,0.02747397634243496,yes
72437.24415967861,-1.5065160903063555,0.005637723020293042,yes
84874.1530839715,-1.504996700987112,-0.004628941488052352,yes
67468.48756150725,-1.4940667304473647,-0.004559994543413738,yes
77001.23630764018,-1.493976781138359,-0.0025366337171155605,yes
74456.77453664065,-1.502486500478543,0.010053683761600095,yes
77914.19487731002,-1.4911956804646989,0.02122359197421921,yes
65136.72233753555,-1.507039604139717,0.02927723665785938,yes
79841.04662208962,-1.4885425402073302,0.027285895906359298,yes
72508.42277482928,-1.5033887871584815,0.022977224810527067,yes
63146.73247733641,-1.5060954875684467,0.015411588493475199,yes
67418.35507253575,-1.5026810852585448,0.009364789040917684,yes
73563.49552685457,-1.5061430846606845,0.009451772765061152,yes
70379.24655292796,-1.4765444318441823,-0.004689198902853656,yes
71094.55407689876,-1.4930677497661506,-0.013642771836648825,yes
73239.0610947372,-1.4997496483104926,-0.000985468776722834,yes
83185.0001894127,-1.502283385823153,0.008444372102873039,yes
64424.475293932126,-1.5083184834481675,0.022563761105207768,yes
75875.83176124268,-1.4853783296156544,-0.006556172173570391,yes
75872.39836371788,-1.5072632368167023,0.00506738360783454,yes
82220.0200241851,-1.5001503524776834,0.038496369377243655,yes
71510.69351422612,-1.497094960685499,0.06252749770497941,yes
80867.18853368005,-1.4865982440361072,0.08346917799024194,yes
82441.18643587193,-1.4937483268305953,0.016898523162968315,yes
72220.25340979925,-1.4907980858895251,0.05191808036301592,yes
70064.10789563232,-1.4790664547906902,0.026333272221796027,yes
76969.37686531384,-1.4872244958837897,0.02159725439923311,yes
70535.07395979692,-1.4851448969306547,0.02498805994201526,yes
71925.28844277377,-1.476573610408027,0.02935526322744542,yes
72240.90575091919,-1.4905250234086804,0.02982894966776066,yes
77300.6390715761,-1.4797510698049272,-0.01177824487590654,yes
56788.482779327795,-1.4932760871600035,-0.02173786500480838,yes
71874.89198541641,-1.4816832960794346,-0.003380205365266299,yes
71048.112718455,-1.4754527637686004,0.010522859295962878,yes
68059.84052927242,-1.4781560695183138,0.039366435357945075,yes
64243.7422797172,-1.4831575732889954,0.024943112492005128,yes
73951.48909685717,-1.4906936471077532,0.04944755711974032,yes
69074.5625037167,-1.5010941382371894,0.06504428286750677,yes
60039.152303982904,-1.5091128992361558,0.040279779992767044,yes
68054.73708324267,-1.498506952888033,0.019409337496319228,yes
68527.27349214864,-1.498068267920983,-0.0017389128067147534,yes
59132.21444198276,-1.4958792346339265,-0.03032442715737057,yes
71831.4632258529,-1.4816746314342986,-0.04648981793014196,yes
80235.93072114987,-1.4912658360267708,-0.015707326189707365,yes
81993.30040819084,-1.5085640080256735,0.023527494149543478,yes
69115.65008930003,-1.5194535467872212,0.035304705593913695,yes
76866.7930399739,-1.5144951777216282,0.07383014878511038,yes
86451.63597915354,-1.4976217601994413,0.09173457883803567,yes
71277.12402217908,-1.4807323453323562,0.05683296738059147,yes
72430.39104548102,-1.4898143235487018,0.03997069894564413,yes
78862.72808530228,-1.4891617374225592,0.06852045722853058,yes
78719.4889404386,-1.4896018082031228,0.048362222001111864,yes
64410.5594036711,-1.5002047098519917,0.03546471889447126,yes
71454.26291480652,-1.5019949010221074,0.035412172587208475,yes
77165.16994460701,-1.4993616256640268,0.006544800731552917,yes
68017.83933537357,-1.4881264628409059,-0.004389779140446674,yes
75395.97116132751,-1.4725894356145781,-0.009654380990188262,yes
74755.79243376362,-1.4952554411869474,-0.015081945997349069,yes
73209.15908594504,-1.4879928240715474,-0.01176960463600399,yes
60003.681921450036,-1.5032775954771653,-0.002253972431540022,yes
80351.10947528887,-1.492848372367088,-0.01743284341879952,yes
77041.69220468689,-1.4826830424535036,-0.03280350833426396,yes
69274.12979174928,-1.4743049779481077,-0.00953545092565047,yes
581.7667675350307,-1.306933480579975,-0.07523719037980427,yes
562.241481907031,-1.2633280919525731,-0.06850200521676629,yes
573.9843335485643,-1.1950694550508907,-0.09168747443172451,yes
577.7383770307122,-1.2544932918351202,-0.07506795458435364,yes
532.7553938260014,-1.237684763854091,-0.060553059172197374,yes
554.977211739794,-1.1909535617981355,-0.10299986225640267,yes
569.7828041710877,-1.2789085230270412,-0.0848218286348559,yes
578.1225911744662,-1.2646298447424975,-0.08446891049580406,yes
549.9304283316405,-1.3427886197166314,-0.07975148003441261,yes
552.8135620743265,-1.2403915196236817,-0.08159943551686949,yes
600.468819029451,-1.2628764891101427,-0.06188086362073005,yes
570.9407486853465,-1.2982054301124542,-0.07280786815772959,yes
569.7073461286963,-1.3048040492077273,-0.1035592592475308,yes
569.921293485498,-1.2846506927282897,-0.05672081465224212,yes
572.8175006878068,-1.1919134534996956,-0.07389772381392892,yes
552.1997386485908,-1.2355899802190278,-0.12663737238026201,yes
619.0942143550953,-1.327717079944762,-0.0995099508588746,yes
572.4325078686882,-1.2392276803956856,-0.04852985146365883,yes
570.9085940485988,-1.3183518926855275,-0.07329936369508938,yes
556.2354041933999,-1.2727111174934458,-0.10628401052207143,yes
584.8903863864347,-1.2834621486688684,-0.08779890733457675,yes
544.1888226013647,-1.1573277584300599,-0.07496891410832549,yes
559.0984384583193,-1.3407280202042522,-0.09225282665399702,yes
545.263119099866,-1.1912519483727404,-0.13825107538119377,yes
565.6609692058705,-1.1726114999220132,-0.10227506104843512,yes
536.1714507672682,-1.3240991255797192,-0.0906577853919911,yes
535.6060034562457,-1.2015430857461955,-0.12992358755223635,yes
601.7987709242502,-1.2449220331562905,-0.09090329514260158,yes
542.401554194933,-1.1962092784899394,-0.09137789604862402,yes
566.7547663325163,-1.2381600280087024,-0.03925151237571761,yes
566.5112216233384,-1.2413120539970777,-0.06103118034055272,yes
581.2052191536463,-1.2601699763552472,-0.05340430701694913,yes
530.3111749968166,-1.3116548144282592,-0.05551085112827351,yes
571.8373350634301,-1.2346636775519,-0.08475092261552834,yes
574.5497257585872,-1.1922165425898075,-0.09359070228829174,yes
575.1955714078158,-1.3041424475957941,-0.0678780452925508,yes
548.0298167421229,-1.1602080710158116,-0.08051043735265534,yes
543.093541164849,-1.171864916498282,-0.08311969142865379,yes
544.0152877698615,-1.2474606658475673,-0.045088517416832834,yes
566.8486413500622,-1.2783578914749876,-0.0644802849960019,yes
541.8570025497628,-1.211782855464562,-0.01583035636730296,yes
542.0633382801237,-1.1742869032408667,-0.06960335673123615,yes
556.909232180438,-1.310042203346591,-0.10717007119187484,yes
525.0304647803027,-1.2009921983476235,-0.08365708353447487,yes
595.8087609183533,-1.3048065740045154,-0.050358591505176756,yes
566.8076269851645,-1.220578974898552,-0.05965033718212896,yes
577.3907815589436,-1.2653880016246324,-0.08064363119160901,yes
566.2229400282511,-1.2163291693514797,-0.047834181372969055,yes
560.1573075312432,-1.220210021443761,-0.07346905307407017,yes
549.7871554816235,-1.1479023439058322,-0.11712757277304867,yes
536.3084519275527,-1.1949225255006346,-0.025042615612401294,yes
553.6753963801751,-1.245055627626611,-0.08941388024323944,yes
519.9032095659437,-1.2552478408007604,-0.09610489131068813,yes
549.8657833264739,-1.232329007652383,-0.09520657428444375,yes
527.3110357767066,-1.3272056010421547,-0.09589830845253508,yes
570.9675388767255,-1.2429838643869557,-0.029849698380963536,yes
555.313866459618,-1.2634015560645258,-0.0879879362698613,yes
540.5274436233319,-1.25974417489006,-0.026623295157636662,yes
548.6118831980143,-1.2934901031732642,-0.0950518974565197,yes
563.301491869642,-1.1862374056495602,-0.10718602525949433,yes
561.9848274313705,-1.228678216448999,-0.06388125833920853,yes
523.7721322249307,-1.3047610194185748,-0.07638826085846176,yes
564.7831534744728,-1.185859316334338,-0.09518195437799518,yes
574.9850565442846,-1.2613216718262978,-0.1090049234994271,yes
513.2998737518649,-1.1741166500315101,-0.0947155420231723,yes
550.1040336411661,-1.135020249776262,-0.06686228897569989,yes
563.4730037683266,-1.2063614824677513,-0.11750039154410508,yes
569.0642563837212,-1.2182217698302096,-0.07855836947327714,yes
572.0612881637437,-1.1855486364929866,-0.08038642050865266,yes
541.0962362911606,-1.3400288731907193,-0.0766573086345571,yes
555.8166092603628,-1.2692420784041238,-0.05484065009750091,yes
506.2096492750099,-1.2872745434205002,-0.08797329410726376,yes
562.3517073986807,-1.1959228273878921,-0.102634723305533,yes
529.0138194010399,-1.1341190699511718,-0.10922061056205024,yes
563.3710370195072,-1.2248311471619495,-0.08438633640579865,yes
553.7285432163089,-1.164970538881857,-0.16475185329301156,yes
569.5362250626824,-1.2989734386196683,-0.04170803328884456,yes
557.5993905660223,-1.2506892277737385,-0.05629651010925703,yes
587.2976371434982,-1.1994209760499075,-0.05183743937702281,yes
536.4432174395324,-1.3106521963911781,-0.06356116115781875,yes
573.5471340274192,-1.2189840378270167,-0.06873447552674826,yes
568.9703813661752,-1.2554401501867827,-0.0653582262994699,yes
562.3755964583656,-1.2863535643599708,-0.06620528336866634,yes
580.0770723202036,-1.2355447784227331,-0.10588549802180933,yes
545.9142202738831,-1.2822322156187322,-0.08877594769880849,yes
544.7648112888705,-1.2537567751996697,-0.044349299057895336,yes
546.3070788674635,-1.305186773736493,-0.1059488518449058,yes
558.0172000881614,-1.155485963089003,-0.09437436674483954,yes
591.0549273132206,-1.2506971777877205,-0.06515747694108448,yes
539.3824944021617,-1.1913721211867077,-0.07927690001554157,yes
564.2553931114022,-1.197992916037381,-0.09601594583107037,yes
540.4301092027251,-1.208670424809708,-0.10102999578925731,yes
575.078220801651,-1.297137490625378,-0.06313211826507198,yes
547.5772585648649,-1.2348054281767042,-0.11934539913427067,yes
528.5916000903835,-1.2584967955785928,-0.07252585413703606,yes
551.9633630492999,-1.2951670685908887,-0.06271734850068236,yes
569.185566146198,-1.2296162155513815,-0.05615022410132773,yes
516.8065133191732,-1.3086973276376612,-0.04959337953756681,yes
565.0300930886422,-1.2352101730731182,-0.06047755616242905,yes
1370.8272411567286,-1.3283732628821696,-0.04275914150768892,yes
1377.1053307207148,-1.4000670026744801,-0.018149320980275645,yes
1378.2228836395118,-1.0703580490149196,0.0013950423943309552,yes
1324.6814713840367,-1.3341236136039785,-0.034973775229647015,yes
1344.5198502881956,-1.2807166507904442,0.007399812850410158,yes
1404.7265566552667,-1.3066546176696565,-0.01618426530725318,yes
48816.70144685519,60.797525974095514,1.5926322050795603,yes
1378.6284406642067,-1.0752274702942717,-0.13910675571942793,yes
1366.4407330254369,-1.3538035196974705,-0.008271954944250575,yes
1290.4189061770617,-1.1590620011525359,-0.05475412855393979,yes
1330.7549974195758,-1.3139309587023602,-0.038030274122923445,yes
1230.530668210007,-1.384508805057953,-0.04394610816745978,yes
1280.2337538110942,-1.3206989555123052,-0.0344431339234703,yes
1254.6047549154873,-1.3112033885080805,-0.021148082925853462,yes
1286.7982370134414,-1.278407845916755,0.007700838815932778,yes
1221.8325871710292,-1.410804372866619,0.007937931395423802,yes
1326.442337014644,-1.0661183612663334,0.037832178442444186,yes
1315.4104074384322,-1.4105903540532654,-0.025933590897757684,yes
1392.2253012638769,-1.3730082041725276,-0.05154939230298252,yes
1423.0062504458224,-1.0006966814275446,0.042175089737224836,yes
1313.8250261041471,-1.3626498851265427,-0.037534467305061964,yes
1307.8423599082053,-1.3058186607719324,-0.019320744735662254,yes
1377.390571509482,-1.3500023655437159,-0.03164696978520715,yes
1334.0592121460681,-1.2769413267974123,-0.03024653701294511,yes
1456.4629383340566,-0.6901224879706933,-0.2023251757143536,yes
2912.8650716473294,0.7759299904955737,-0.11358757648187218,yes
39331.40914173848,2.356701636976533,-0.4196651019268638,yes
18041.609694222134,24.916790994299642,-2.607348804074609,yes
17000.183622642842,7.728179975342963,-0.8046810046591933,yes
14994.392351005637,1.3543460543752461,0.19715608472388954,yes
1958.2631672861971,0.04546927062792294,0.18896327643649483,yes
3594.816418787182,1.2658640712945095,0.3643457719482051,yes
3407.45038683217,2.6337037162443657,-0.7060714500622611,yes
25110.444554237045,5.9529012305245885,-0.7699423493882108,yes
2983.2626087732915,1.8567071709436496,0.2484183281090101,yes
66541.50505577776,6.7481040583261915,-1.3123675029109207,yes
113326.2327933899,18.517458150492807,-2.624199356747547,yes
2773.609180172306,4.121758536360867,-1.178322191065102,yes
1200.8134797028931,-0.031153850214772127,-0.15511319609145335,yes
6130.7252499060705,3.1544544000365784,0.5299327696559648,yes
19143.21784330315,40.75573555444778,-4.438349965842619,yes
1112665.5625038578,12.216063115052226,-2.5494766684154384,yes
39285.93530687042,-1.134504679671188,-0.19940962264556186,yes
6478060.752609558,1.1931290597982995,-0.5561150147172788,yes
22081918.946657486,-1.1390929731257362,0.8607831185036021,yes
22546031.61556371,-1.0239405791581215,0.941333347955552,yes
17633758.735740077,-0.7440200776328254,0.9745096916009486,yes
21849147.5339469,-1.0753769399118387,0.8869776909222027,yes
26765669.381149843,-1.8795699264905519,-0.1938445255186175,yes
26289748.38698595,-1.8266854140246174,-0.26251803150265957,yes
22445032.538036667,-1.664572516133164,-0.3476458197083851,yes
21084463.256388605,-1.6900765542401375,-0.1452721935618588,yes
22997423.367383324,-1.5875926477087177,-0.48272880419847913,yes
15443946.285564905,1.2212345277171073,1.7600510241066412,yes
18477192.283239827,-0.7139721512204309,1.023055816258505,yes
27824550.86275736,-1.8087989373875026,-0.4045300020431949,yes
9406061.917359758,1.1567184679370337,-1.572469064800918,yes
10542793.105521023,-0.9593982981411169,0.20815293420699582,yes
9821993.239356373,-0.47302051649803545,0.8404476448097756,yes
13564591.697937591,-1.1289524661263004,-0.39368033203742664,yes
11757273.875066856,-1.1017504024762381,0.012303291520563317,yes
6999377.4565142505,-0.9168579237135748,-0.038086745244793004,yes
9220073.35029469,-0.9423521687179779,-0.019878211123788677,yes
19324189.09458077,-1.5906038878340265,0.08939559162285292,yes
22757954.890418313,-1.430351709802426,0.6332066350853918,yes
20120549.63571388,-1.5082938997229418,-0.42381091781099556,yes
23939227.47165832,-1.7446442280964338,0.29740008882722363,yes
8.271806125530277e-25,-2.0,-1.0,yes
7038579.7411263455,1.8589584177042218,-1.3257746105066062,yes
503713.18455972674,-1.02847775000456,0.36574529078322915,yes
46117.15075735592,-1.0791098610271666,0.3989469841198768,yes
2252.450559258241,0.3916017311339064,0.34298602190245486,yes
1451.4317100662024,-0.038330882432047186,0.5421395730984019,yes
3000.031423333682,-0.5342634423695478,-0.258505343329561,yes
4420.367847538603,-0.367328134239834,-0.3589903012442277,yes
2668.5790276424614,-0.3220287726051274,0.2526772086643799,yes
3103.925157900211,0.4874023139945822,-0.4148840669272632,yes
2502.83297784644,-0.9162411815988434,0.2887131984833636,yes
3129.392626293692,-1.3146611998457391,0.32387315025118246,yes
2841.318147747611,-1.241952099869398,-0.2443478041139879,yes
1131.8444710140939,-0.714268211457529,0.0911986885924754,yes
2457.0388989593375,20.055180225145985,-3.352236813323005,yes
303.74254556538034,-1.1777065364839898,-0.4478928453172041,yes
3697.85932814213,15.377109988669137,-2.8934172916151173,yes
568.3578397861718,0.762694305204938,-0.00760891596120856,yes
457.2123886832213,0.8830088054297787,0.5497078574909877,yes
1438.1712265456597,19.673048904418216,-3.1664314315437614,yes
820.9283745921671,-0.8044586431987737,0.7313175681291714,yes
873.1400058086551,1.6012071260904888,-0.5627829311563783,yes
683.6495377328101,0.2528230217338976,0.21457002561916894,yes
447.14818856394345,-0.351862872508367,-0.2833831548131402,yes
579.8945295431332,0.24142895114977625,0.42449070784290927,yes
2147.4126289446767,1.3959251428881334,-0.8091855357113668,yes
808.279604428079,1.4690611049612112,-1.00418074707193,yes
817.4192302786491,4.438043177521382,-0.6539500307583808,yes
978.9567699558397,-0.4318829475556778,0.5844773600077172,yes
1095.768662191532,9.434456146887088,-1.945734219092773,yes
512.8629488814381,-0.1279319372374581,0.5938914873212116,yes
577.6486149397093,10.726063457545292,-2.454182554946669,yes
2251.6917129918315,38.732034071579875,-5.200528739278047,yes
952.6254562835991,21.46248184685033,-2.679550294338021,yes
977.7866310351131,26.36754169801569,-3.9553274111122456,yes
1129.445456788604,21.381732049737515,-3.6826861968149194,yes
434.62999623587393,-0.5889737072982708,-0.05226236470073253,yes
532.1532706062967,2.249153593119358,0.7844424294699973,yes
571.9471240184794,0.06834544339314341,0.02332338617324171,yes
1120.4829148718986,2.144536291111283,1.2865338548701635,yes
1523.180824307133,7.941038466438448,-1.2421771070931134,yes
494.79091794376586,2.6145143276001512,-0.8285625670051847,yes
1140.590511706741,1.0122746634867346,-0.05543479055162219,yes
793.7668362207835,0.10906864254205173,0.16814056069824176,yes
1510.6577617341318,1.7875624242397414,-0.3892752341059063,yes
609.4168202622448,-0.6355433723436308,0.02928219725329652,yes
1599.214121560471,0.1393972659768048,0.15603187017440365,yes
545.524067609231,5.533594891404469,-1.2312321247607647,yes
357.8779602637985,-0.47888549446145934,0.09167308020949788,yes
1295.8555928003814,16.017583943405317,-2.8694852085297193,yes
257.3524793179363,-0.019822873198070745,0.16064634538056022,yes
250.4580167323545,-0.7498233773429104,0.4186742536207001,yes
214.97012532297967,0.4297955545123733,-0.978489284652581,yes
2083.455964257932,27.938432055696595,-4.477389156352662,yes
450.3770148717881,-0.5025133191121265,0.017728260334310016,yes
268.4336427050393,-0.5445535432003457,0.3388574111702727,yes
1263.11957814582,17.205778318204402,-3.2200989329813563,yes
292.3190136129485,-0.8650754972768988,-0.36490527533981204,yes
2058.6071801380485,33.206053354802755,-4.715593686236804,yes
326.8450299398,0.549958035651799,-0.4400296777381477,yes
721.9009005995648,-0.31391822283394744,0.15839442775288634,yes
476.9707904087518,0.2793435395155548,-0.021114566636793085,yes
569.5800188245079,12.272087689424849,-2.4910600088234602,yes
1161.7084267997259,0.40293526707802174,0.30586675177628714,yes
1907.053513147092,7.040948937153399,-1.2532764856243903,yes
732.3314907571112,1.4457288799844914,0.5835672692329895,yes
519.208608929238,-0.5807282108195713,0.11393590777239865,yes
664.9990500954223,-0.7728964769228188,0.3322223260071749,yes
894.966862748096,-0.22358549860659904,-0.4415179316911832,yes
866.9010537584677,0.325062658229895,-0.1442974912787652,yes
841.0138332122615,5.488169126493055,0.8321423718066209,yes
206.27773805394907,-0.12459898278081827,0.6922086438183085,yes
537.0384573056967,-0.5764588127269716,0.26379222200802954,yes
1313.6316092088985,25.933607702565663,-3.7023177340542612,yes
435.1534335197522,-0.44044702219328435,-0.1416920673167935,yes
1679.4199343115092,-0.4311765669955312,-0.4814540228454865,yes
1985.2761627600312,0.31799293084274316,-0.383066071562797,yes
779.1279033831033,-0.03378888348810216,-0.2722451556941519,yes
1591.459721168558,0.595227559703297,0.10310233496415307,yes
1551.6750841460337,0.8164590915774386,-0.8031339329790547,yes
1252.3570061749178,0.331066505513816,-0.26206666257387,yes
1051.6151463675756,0.18386939961891624,-0.6187383034487407,yes
905.1185752144673,5.402071916762944,-1.1428518387039157,yes
958.300666163771,4.894482166211157,-1.1530474710720144,yes
311.1000615736342,-0.5089811668429509,-0.0440099366434677,yes
3652.034182969807,22.721615972932085,-3.6262435502824255,yes
983.4708761977826,-0.5046218751736076,-0.08930981757483682,yes
769.7813066456893,-1.1008728683562248,0.07422526494261515,yes
200.0758860619984,0.9415156816331263,0.3897742388728938,yes
3154.62069664856,38.26182537819182,-4.951681159025138,yes
426.43748950559166,0.7565547464809734,-0.6035978483979166,yes
569.6781109906424,5.52800937643023,-1.707571794965967,yes
530.6328725716864,-0.4365421926974684,-0.020177804873603617,yes
548.5513724763674,3.094368478411983,-1.1812396280947501,yes
567.8746510060125,5.3363508268288005,-1.1930525051492193,yes
941.7161230141313,3.736567794142351,-0.9763641357109234,yes
1152.7923260556586,-0.08433148944782065,0.11840016961453306,yes
945.6060993805969,1.1698507396031532,-0.31374717931213697,yes
678.5756459143272,1.2530768233699812,0.3617891350925314,yes
558.044903930997,-0.30787482825153667,-0.3779856149322323,yes
378.37293848201637,-0.14833493923945307,0.3348245926050166,yes
173.29212740447522,0.45350073881919073,-0.6881493600066649,yes
2427.850034212336,25.807679454808813,-4.2266788706752685,yes
253.4409084853457,-0.5386386524709859,-0.4934360553450546,yes
731.1676004605821,5.694042534364968,-1.58208253344469,yes
487.3350402443333,5.086606728856667,-1.0566453549444188,yes
1081.9401941511546,3.1620929342429145,-1.3133775975292916,yes
458.6616180106096,0.7630202720901531,0.09753669175915004,yes
1033.079850146024,1.7274169376492576,-0.20123500014271292,yes
834.1598399615361,1.5623039418349558,0.35755375465440914,yes
876.4464959074287,0.2688649491998034,-0.12273316576363218,yes
2082.803153671512,1.219188691496642,0.4462165823521631,yes
1517.5704119209397,0.7891424845324955,-0.15284384921332284,yes
1654.6774203712196,2.4796279078765204,-0.741171020415522,yes
838.7333954833914,0.6735263216546774,-0.11093842525669555,yes
1253.595038069804,4.95891830553566,-1.4264803540582833,yes
697.2320075745442,0.7184493561562619,-0.5563839490979607,yes
490.11404292219675,-1.0561112939832227,0.21508415443616907,yes
1962.2644600586746,35.66713125786417,-4.988818590037391,yes
755.1472752341263,4.015552826848741,0.23824984162845422,yes
53.411569953728595,-0.7782795143051247,-0.17658272098776692,yes
870.2452077396588,23.097492812539564,-4.087116128108863,yes
689.9175946434941,10.16524384371269,-2.5059117782661917,yes
802.0738086568391,2.8497780609845877,-0.7903923855064471,yes
754.8185354098102,3.0648593991679265,-0.32980881125357736,yes
748.4482648636578,1.4138495902008321,-1.0002485964879395,yes
788.9957423343462,0.0756990088471019,-0.26979758421169864,yes
1236.8032976493694,1.0527807842522936,0.9505906990208325,yes
1160.69808419463,2.7881209982329187,-0.5182254006104511,yes
1302.570098084473,-0.008715476878649486,0.056554888521584815,yes
914.1104163401561,8.020285552294618,-1.8737261145135218,yes
704.6648671517953,0.9454238367664178,-0.6259594263523612,yes
653.9027681046226,-0.5133470250110341,0.39884830106388147,yes
978.7225928437146,0.207779923829579,-0.6126654611965672,yes
351.41846112391744,0.7683272071013518,-0.7724965102198422,yes
1328.0369548141455,17.979199143132192,-3.629819641636111,yes
771.709052273908,-0.8668813863382243,-0.2896912429310651,yes
556.0712617330421,0.9387045168486368,0.8484933993266136,yes
552.2129274358869,-0.035239379526311065,0.8196562692738704,yes
1872.6496548818254,26.079128152603623,-4.121150559280911,yes
588.3774830387852,1.5060123694112741,-0.6132330551315377,yes
542.054355108649,-0.45188777947418934,-0.4508188580073431,yes
1764.190815749063,2.77209857430842,-1.274400114111188,yes
954.7262630455812,0.2985974989538156,0.3376725963492395,yes
1256.828213939492,3.414424977225896,-0.6359556208781081,yes
611.7729765886205,1.4856822961655523,-0.8232923771315306,yes
704.3946655187724,0.9214038002993186,-0.018812604952808117,yes
492.67336731217205,1.3656775077857377,0.005792089592538754,yes
614.7205755107304,-0.5794663851508393,0.04759138951272372,yes
1962.526944134653,7.996374665861662,-2.258073348948354,yes
2561.8819882944576,22.806559711333446,-3.564375577122411,yes
417.37765972648856,0.5145529342842536,0.31820196045170557,yes
1582.7847765694116,25.321443536057885,-4.1778457089327565,yes
398.73462182965926,0.38348664307765823,0.40377734664543274,yes
750.5456211925089,-0.5165967327639471,-0.002470066607087155,yes
1715.3355427444428,2.119964312269623,-1.2012376584156945,yes
1203.0353275565872,0.47193561452922594,0.4914187809041313,yes
826.5705712851343,2.58696908695259,-0.8501703861971405,yes
1133.828718232321,-0.28441770998417804,-0.12510989868760813,yes
1558.562131589359,2.3245010885732444,-0.7591533173125318,yes
829.9130918847591,2.2049061479456498,-0.6516564938587613,yes
649.6614297500047,0.47319648689315885,-0.27991524768816267,yes
800.2892384908242,-0.17328684904769176,0.328350286762117,yes
1596.4126017950964,-0.16704539557036968,0.7512149030494839,yes
1014.6630936870911,30.15396196076304,-3.8311231307056763,yes
270.9360904764969,-0.6569164554133184,-0.7654088954143808,yes
581.1188037008684,5.103790730375014,-1.4241061751986528,yes
1096.338801630302,3.9642523495027966,-0.5869356037210546,yes
595.7175738898754,1.0774745502513596,-0.5507594897385167,yes
620.8247261692175,1.5207997138280378,-0.48403548829427145,yes
702.0185019767687,8.155733334331924,-1.8321221091173359,yes
1008.4252782551957,0.4551246627518073,0.7997984135269467,yes
1957.5705601096822,1.8877856873203953,0.5975421158895592,yes
1197.3817053083076,1.7163913431874347,-0.7860126064229925,yes
909.0684882270505,0.19353923334261713,-0.3963049151342892,yes
679.6723971379688,-0.4435238630762348,-0.3076639865913285,yes
567.5553740308642,-0.2505484618604017,0.6685285843293635,yes
418.8620345216197,-0.7343357663725092,-0.012299219187701245,yes
1393.6378367427221,16.11552132004156,-3.21339765306737,yes
784.345197474881,1.9032139488156945,-0.6735379447147479,yes
538.7485134076833,-0.7083122994759194,0.6171609645156115,yes
195.3931532489023,-0.4981487738994006,0.06097464902947045,yes
273.72702914141206,0.5699144649066405,0.10175961964788705,yes
1036.3983454284532,15.10525428346979,-2.682523263634284,yes
147.53996325226908,0.027255684586257267,-0.05718340419982981,yes
1347.691184042319,4.012582849242067,-1.5651154869134083,yes
241.15049813634462,1.1426763304892358,-0.8181751319608789,yes
1259.684803523169,21.58322092629123,-3.175513722340211,yes
365.8387617384209,1.315810096296489,1.0215678489736923,yes
1619.9424512301011,12.749230768839302,-2.105657200086324,yes
1007.6686565314619,1.8493470864002894,-0.4038699092536191,yes
1870.7331964157113,-0.4400742025499631,0.09334524794830755,yes
696.328361007154,1.6842543163182375,0.7966574656373708,yes
546.9329224267385,0.2760081276940176,0.07127601175096368,yes
1355.8420109243143,1.4201804028161353,-0.062224958841558334,yes
1304.8752026941143,0.7989302297275924,0.327233873719669,yes
1259.7412803390857,-0.2627761404983371,-0.6577019258428228,yes
714.5748686189951,0.17846017378536638,-0.5391350844415063,yes
865.3451535946065,3.3704904310447157,1.2711902384815201,yes
2094.877096540479,1.1661125815882052,0.48824198005989516,yes
1021.7320854850038,4.131947072697489,-0.7852963343264802,yes
516.9197663758181,-0.05920095205481779,0.6485987303382429,yes
160.71353113964153,1.994334974219072,0.11766450307880905,yes
2095.6100970210136,11.429310252361997,-2.2203439733042227,yes
595.272120324435,-0.7079365539760123,0.24743474396389528,yes
691.702190437881,0.1676523154725289,-0.6150182884683255,yes
619.7854717706925,-0.4003396815677469,0.027758164227925767,yes
799.7448008919087,0.6261580993908296,0.6923410386678513,yes
2230.4549698170435,2.441318028507994,-1.3421364284442936,yes
1279.7415745980884,1.3651773789770258,0.7253343240151698,yes
657.041082264448,0.4935272996169622,-0.2731387315314473,yes
1102.0024514062093,0.9776201114765066,0.49669762786788035,yes
717.2520267099446,1.232631780296252,-0.2603648368309909,yes
2848.052444969007,0.711938342167,-0.5621251506732103,yes
607.448401980753,0.057390116403425395,-0.25246603818144797,yes
727.6078200370933,1.2313079061679284,0.1571196048551379,yes
735.1037002078749,4.4368375779551945,-1.52320849677909,yes
2815.643451329289,38.10417612912644,-5.251696697053066,yes
466.655430536739,0.8248322580666048,-0.003256575473485001,yes
281.3788899903948,0.309344645499674,0.21072283921293555,yes
1740.7893960653753,32.84972941246182,-2.489229646587386,yes
465.2213364714893,1.6144118420251496,-0.672696146945522,yes
585.3886271365238,-0.5361298855168819,0.18333789046461466,yes
1041.8721688440091,-0.4284746045295913,-0.33688119471199335,yes
606.5462935428136,0.33166950406114726,-0.3388783133656937,yes
811.0891381853326,2.722775698046794,-0.801842805466095,yes
351.75093286631505,0.007387614951440469,0.4432104037761901,yes
1200.4610930070062,0.6557360399734073,0.027703155441706998,yes
1408.2585512251298,3.790469521684355,-0.9927170033636344,yes
1221.4509841312279,3.934279298016639,-0.9843134402264422,yes
954.9603991523115,8.98654797760314,-1.783008217666405,yes
639.528872355897,1.4853283428903046,-1.0777578725637318,yes
1123.7956980173813,1.1297839321810716,0.8509465757790405,yes
802.556903039162,-0.2053033460966418,0.4324619144531666,yes
1971.2764207376877,27.383255210218998,-3.984645572543787,yes
236.42300152754842,-0.4795604596555125,0.3549565841741049,yes
289.5880525995455,0.06814916845709362,-0.15406369244963866,yes
1264.2897354335464,2.245934849917438,-0.72731905446713,yes
895.6544822163085,15.455423755531644,-2.999117880150425,yes
873.789538099175,0.28917599252026127,0.2696054653071479,yes
1016.3452242608256,-0.4267434064968003,-0.14182197723309603,yes
883.1156851044071,0.9005311634638806,0.106065743849017,yes
1678.786415909143,9.669257835133658,-1.8259304219665562,yes
1896.17922240474,0.3315829397732504,-0.12340197487871712,yes
913.3392206156277,-0.2695761731464126,-0.3984393918823726,yes
842.1723381335847,0.26124704872508353,-0.4250367425967206,yes
774.2465908392487,0.30830273786188966,0.8616352355747214,yes
205.81806287782697,0.3884435779672577,-0.22463980693612573,yes
2002.9576262805667,37.20328658638152,-5.1413279635286475,yes
664.5766163607215,0.21651082382849252,-0.805838295320634,yes
762.0446526198671,4.693566383624398,-1.331521347242137,yes
558.1106970872224,-0.5472430028773796,-0.1988968051901932,yes
556.3377711719598,0.539165272727713,-0.09475788313731649,yes
1247.1810134858029,2.0107449841685554,-0.828756781019702,yes
1017.6050496688582,1.6545813895634929,-0.31044969881772827,yes
579.9679979695898,-0.3770481909102492,0.1944399679629668,yes
1596.1948601578415,0.2630805158206395,-0.054434281226607005,yes
983.3237761775687,0.613446730043576,-0.2573812351637733,yes
590.942140265804,0.4607158057506422,0.06977255328484024,yes
507.2572504071083,-0.622287148872354,0.015114712159203958,yes
1226.5033985198174,5.864420210233529,-1.1909694766298655,yes
746.9158646353683,4.564969932155932,-1.4403100847765289,yes
859.818818499399,1.5730491767814234,0.9701005003218109,yes
1340.382929181886,15.126328746237686,-1.3996725981803608,yes
976.0986392527354,3.2630596747091216,-1.0529281167378113,yes
1024.7840593686087,6.181672811829884,-1.3637446006076195,yes
819.860496292257,1.1969563492026367,-0.6970567023043232,yes
1221.152082138844,0.09124582234580814,-0.5749116652815639,yes
1429.064852653291,0.6888928536969048,-0.20369458093471057,yes
1308.8735618722933,0.2990608928975358,-0.18314728965687382,yes
1111.1028346666565,9.988254274162225,-1.6245670600152537,yes
1578.1624775928472,2.902379060403021,-0.9775732959094093,yes
1053.0205208521854,0.6273901680748115,-0.5425133212367019,yes
1263.6913347348534,0.7314305941883417,-0.4306404810816937,yes
830.7241123905917,0.019723206835710716,-0.20031266639149503,yes
424.46476950188406,0.2620794598142777,-0.7291090757521894,yes
240.54931804072407,0.27167649530626914,0.22263107168565785,yes
2051.780262407909,45.045584625222965,-5.967924367624299,yes
1072.3693606927789,6.182692476986217,-1.5719968380652247,yes
614.4518453733915,-0.25846900844070575,-0.5267211012691605,yes
398.33440105912405,0.5685491598859302,0.5017746099303303,yes
2002.733061943585,48.47176865218722,-5.9144873595728145,yes
1274.4893849151929,2.771431613262343,-1.0250527352932646,yes
636.1357489631846,0.21592551494670031,-0.20355176994157145,yes
587.3827092424515,2.243614929275978,0.8609887315896672,yes
1476.503344412128,11.227530896966336,-2.36780706291261,yes
919.1586161429943,3.266828136926045,-1.4506181215574523,yes
608.4099135675356,0.911545249247518,-0.3839548883869247,yes
1197.5649092973717,0.9379888930975544,0.48407076471087057,yes
2763.8743691294303,2.251759136409701,-1.0624173194014277,yes
996.4380647865619,6.7929742542177305,-0.7933422674227656,yes
636.7457964754669,0.3297752718854059,0.24401948279833444,yes
691.0730002403812,0.344978530963195,-0.22565964297558622,yes
2238.1610726879176,8.41227695059796,-2.29309497422,yes
294.9267089919625,-0.9295333787348143,-0.06789180099662885,yes
312.5294549683463,-0.8200064129134281,0.0875033813945649,yes
2354.0877528440947,37.09170105937945,-5.337954122176826,yes
444.0534494705038,1.075162485334662,-0.44080892763921925,yes
385.05115441870146,0.11656519289925482,-0.022122520452429514,yes
315.2678396667965,-0.22480982331722243,-0.4623483640999797,yes
808.1275577049571,-0.3963321729586933,-0.04287531639061028,yes
608.1220932831413,0.1508776598569792,-0.1539011737278567,yes
515.1884741777731,0.3682519897836083,0.052717335266779485,yes
1157.8833051639363,0.582781147359674,-0.08749563992134826,yes
876.8401686289551,2.7793299454853617,-1.408276494298238,yes
704.600342172837,-0.09146222729029319,-0.32784183000337447,yes
1889.1578019906642,1.8424407292468699,0.7568411118739745,yes
2440.467070899254,9.52481815367164,-2.440262366263344,yes
861.8152549984211,2.4260725895812136,0.863521829546164,yes
2253.9431334238084,1.7452901296622612,-0.9871808093722823,yes
2082.4675518506315,35.43031144274805,-4.781017338679836,yes
609.4615383540153,1.4951601634864877,0.01685387690384491,yes
382.4333541998046,-0.1463700243225028,-0.13691746588803183,yes
997.7019847541378,1.0423509347798916,0.4987871964005457,yes
305.62241953067206,0.3774944142457666,0.43919181551301717,yes
1780.2347271130075,7.038336460761954,-1.710299571129729,yes
812.7632983354204,0.09603264984986204,-0.19485380253575094,yes
1034.7036125299987,0.019379525107408035,-0.3515695062326281,yes
636.9833667840259,0.9201113802782519,-0.29805281184523447,yes
3622.7155100922205,6.780414487336346,-2.131235725920996,yes
1199.9541296405564,1.1275460306371246,-0.4417468868565891,yes
1038.171203001391,1.9253354180175979,-0.5946765097430333,yes
1171.3630099330676,0.14959213967203322,-0.3978005815506329,yes
1092.4715755695315,0.20869990498946178,0.13821706276129858,yes
785.892389545126,0.8205577604056775,-0.7682511264898491,yes
419.99550095078035,-0.8544079210436295,0.09561082408256573,yes
1476.5185424637775,16.91217001370613,-3.423878815669219,yes
590.7306754439558,2.4281120889189687,-0.836809616854913,yes
1542.329645383888,0.6015447724936824,1.2463885343520524,yes
2292.251707786473,5.822909152255614,-1.9360599061961368,yes
476.97344038240163,3.158334732399825,1.248188368442485,yes
1369.2980504548746,-0.01941797810031609,-0.2592354002461033,yes
1980.499919279409,2.1222412558697092,1.1571326312425083,yes
1283.2201028314487,0.91317777140025,0.10106547913177251,yes
702.3899664326643,-0.4659183663001625,-0.008746143812374037,yes
240.16336629335842,-0.5422897687654755,0.09632888712047417,yes
1772.0411384382933,17.34669417684251,-2.8360863905630356,yes
627.017977706713,0.9383547197600466,-0.4933364634830771,yes
892.0519314573103,-0.3929696972975014,-0.03749027737231146,yes
387605.187912891,-1.4385372025610172,-0.5148234185249694,yes
59582.929336183406,-1.1546895646905584,-0.40836333855235385,yes
42111.594223407075,-0.8440360748655702,0.3381687072540024,yes
8112.368065146924,-1.0698970124513303,0.08232449066357861,yes
949.7500430879343,0.5560919729079923,-0.2037787619400194,yes
1995.3195663098281,2.7480254654534617,-1.1429454237731802,yes
1747.2538692450942,0.5443482246747786,0.6235259574177135,yes
1797.321912685603,0.2703000135393343,-0.35667288542781644,yes
1486.5581850500046,1.8681505484173515,-0.057010103915375275,yes
1381.445184963882,0.5910419126276292,-0.5155010574769735,yes
2769.4602474752464,41.46178877610762,-5.462323958274614,yes
553.9155923154306,0.8331653516661892,-0.6081567414179999,yes
440.50310327783427,0.795236132821628,0.8061107398479233,yes
601.1947482150513,0.03783936723165171,0.11829640191688608,yes
195.53000918174632,0.2340760204970147,-0.6941357017863021,yes
657.0495567127414,0.43202586659895603,-0.5514245141474974,yes
616.0651342960683,1.782643264670936,0.3692158179162568,yes
792.0276573184399,2.810386356318303,-0.6700143231915872,yes
846.1871285152389,-0.018012433222777346,-0.142985132949898,yes
1011.2548346051008,-0.21279061207365624,-0.16911839516803295,yes
1967.4956840248342,2.5296379824022486,-1.030500165628523,yes
948.0278921029903,1.8497926722865277,-0.7009486803736447,yes
848.9610033830338,2.5335741415157313,-0.8871440878465371,yes
769.2357708710399,7.20000155098,-1.5180593504971123,yes
874.1983238715842,1.3611332555415192,-0.5679731671578823,yes
681.912405255959,0.5784530163763262,-0.5026492830111083,yes
1761.958909186555,4.1445559640990535,-1.4428740829305973,yes
923.8065913310413,1.7687869847088518,1.2948157455690388,yes
669.3773554391623,-0.6587166147470072,-0.18858920531742113,yes
309.00122435202934,0.20809027252176104,0.595286056000821,yes
173.07207024382325,0.773909747373958,-0.5798124581012082,yes
2164.1446808870623,51.08233638591833,-6.558349238605358,yes
1077.0781507258187,0.4109864429317338,0.8247798799127128,yes
391.5212726744606,0.5027228766593494,0.01688204266753594,yes
2970.904867565754,18.607890672465558,-3.7593494457841663,yes
478.68615371941,11.85779647366807,-2.1199057677976487,yes
2160.4396328719467,18.93670925457708,-3.035174503229824,yes
1222.7222158732939,30.58353430682024,-4.170173304768296,yes
921.3952827484342,1.1280727581072503,-0.5007272961336792,yes
575.9943018279255,-0.43105220491008867,0.0935320614690476,yes
950.633958798973,-0.1634484201981139,-0.09905405243384999,yes
2143.9225675168427,0.20330570917526858,0.17596412251120014,yes
1126.3589042514136,3.8351862435161,-1.2057202594694425,yes
870.7458836122137,0.015431070083020249,0.09828999998743015,yes
1751.6211005693558,3.1261500089594163,-1.2009306516243763,yes
1607.269433209122,0.880533024794282,-0.7493493703847368,yes
679.6732770454024,-0.13731807435783994,-0.66160924681371,yes
1529.1337402347467,23.182975848283323,-3.537116031167523,yes
505.55398667794225,-0.4805583342646229,-0.3180423636752673,yes
415.22260410838294,0.4646289779750097,-0.40755590322599733,yes
1717.5915980674702,0.378170591084404,0.7603229894419661,yes
440.3619353714256,-0.46302253187507203,-0.8139054694624964,yes
712.714271033594,39.78116591912664,-5.472864434815265,yes
690.2591969205046,15.760137004706564,-2.697861220827311,yes
778.6717901235296,-0.07911579364525867,-0.016282596739321996,yes
1241.6830900036334,-0.6419429055548584,-0.022026147112321003,yes
1338.349686496625,0.6663197042042688,0.16194875367397626,yes
1250.5284017675217,3.6918818253284185,0.30962913195692293,yes
1380.6910137396371,0.22632178716853968,-0.512555088423727,yes
1588.7999472293768,0.22949347686339427,0.4225572185745202,yes
1281.3155286685028,1.4553944230315423,-0.8703141891834123,yes
1910.1919225590325,3.0366392356266845,-0.9853488902508641,yes
2229.1032282533542,5.470415224041275,-0.8414683470901837,yes
543.3757864240856,-0.6121505035585031,0.35812335459136097,yes
2560.3326784664187,40.96803146367518,-5.740988314854475,yes
470.0026821338081,0.022706137562882756,-0.6262800903245238,yes
535.1674238472763,0.7772430138834499,1.0941330642917795,yes
306.7569990854503,0.4444187441772294,0.6872630555570008,yes
956.1919086265608,-0.6629273659736357,-0.16546030739841575,yes
1847.8155545375967,16.264016933054034,-2.9463976731622337,yes
810.1758169075672,2.4773286378241863,-0.786443289718415,yes
1480.3525515917868,1.1544306145469836,-0.6126917054309479,yes
689.5943456978481,-0.15635412961566741,0.180637545998212,yes
1095.4211722232276,1.783873747785309,0.9776243169180446,yes
2149.195755806217,5.245180877514544,-1.5890774832106143,yes
1399.1003516391972,2.550686555571577,-0.659282367962769,yes
1229.0408977883212,7.09897167401456,-1.4389711009693942,yes
989.4578633372191,3.072661600157642,-0.7609797711667219,yes
1561.217290713048,0.27413153940546797,0.7996385306946683,yes
332.4550391062759,-0.3556468264940089,0.3514391403053725,yes
1610.265347164992,47.585523778616526,-6.015742818031932,yes
586.5622737270783,1.0077402757779783,-0.4567678128978606,yes
312.15943253550705,0.31715593798562614,0.4894861620963652,yes
1010.8328036629775,-0.46891546909585724,0.10509230739956983,yes
2990.7956927972164,6.660110330334454,-0.9578269050250398,yes
682.0776775003761,2.11057733956579,0.21487954896169126,yes
811.2284271049447,0.0897890495246374,0.6344970353514147,yes
839.1865918071085,-0.6942161921387475,-0.10130005433197779,yes
1458.5027312040245,0.049613613641267484,0.28837116218051057,yes
1548.267706252896,2.067744569714793,-0.622318449560236,yes
1605.74400133514,2.733402868252546,-0.881719702979277,yes
1423.0314380096816,1.9923219885391994,-1.3304911210262114,yes
790.795267936757,0.901662894973279,-0.3115075791311814,yes
1424.3464985390142,1.2098586453621412,-0.28861660541955003,yes
775.6281018925453,1.0414387426007252,-0.34295985844101906,yes
281.36518735424306,-0.5689923332173645,0.1255497865394968,yes
2190.9222374785963,39.19569056536667,-5.359366080059264,yes
322.7954631389574,-0.6327994406495154,0.2150681304882906,yes
1696.3891708554568,22.797364869464303,-3.855393362141886,yes
453.4726791494519,0.9833144803998128,-0.5988992324992081,yes
646.074818129742,13.337537072474031,-2.359253463903016,yes
954.949055607789,1.2046027021645367,-0.9204581294210071,yes
334.61080078602606,-0.35700133635075604,0.1763928565311162,yes
1949.231415951298,0.3578980351917096,0.35758104820265446,yes
1419.2591505438888,0.08362863056744452,-0.044869943272862235,yes
1010.134964027209,0.38463469652042814,-0.47985908423336576,yes
1191.5119662615484,1.1685916583897864,-0.6983304340605768,yes
1574.60730301492,1.0869663668085003,-0.5282811004152078,yes
2996.3984410188064,0.868593259952565,-0.3178548334295714,yes
1048.3896350896307,0.4090771769881556,-0.4627800152244413,yes
803.6144069741451,2.0408203029327137,0.8275086617024493,yes
1148.7506792759982,7.712073288322191,-1.8496717660790132,yes
503.1511696292098,0.007936428338058743,0.5641870740109531,yes
740.8405168497301,-0.9474350823115585,0.19441208306371796,yes
270.5534712717515,-0.5612094956135185,-0.03620688362049051,yes
208.98199814813518,-0.6622081350422202,-0.1193058910309366,yes
63.504593448552505,1.434621058174435,0.23529977747780456,yes
2919.813088987297,39.191789178091476,-5.539080869351505,yes
424.35035718855227,3.1501141713055425,-0.23959689031219555,yes
1412.8388260789459,15.25308791517697,-2.570768152310279,yes
497.39323862606244,0.8589833077045808,-0.26747641484697476,yes
710.7738440598418,5.6796717240948205,-1.2908440665863443,yes
725.1695499801554,1.2510903935215696,-0.5295666605760941,yes
820.843037239565,0.6052721649808617,-0.36572505756982376,yes
1431.9984567758102,5.899898023373838,-1.0392231528504199,yes
526.0909463049558,1.5532512327503065,-0.2150565356037226,yes
1380.4259394895432,0.9034530048219662,-0.7373188127532877,yes
2223.0263453282414,0.49164858958434765,-0.07766181763563278,yes
1805.4140450432367,0.9234601766595132,0.8191066221392609,yes
1224.298622578895,-0.703279582052069,-0.3295193492214937,yes
1055.6622558346971,5.5426531092098195,-1.6714959630879827,yes
306.029980694046,-0.5337368574393824,0.24030520451466875,yes
858.5126211153324,25.756705314048688,-4.0356286776609025,yes
472.3008619573739,0.6568507933714609,-0.6056973046344185,yes
745.1370728129277,0.24245337255652544,-0.7781042760268718,yes
1039.866853395558,0.6961070306914001,0.9004750200876819,yes
2306.213935425235,22.58988936939977,-3.038362448277675,yes
1308.0542719451423,-0.8736270428413278,0.21706836607104343,yes
962.884801077528,0.33642389223742475,-0.3005094224317643,yes
713.7816991284383,2.4392280912286495,-1.1884709978596535,yes
1394.253295258582,0.5510800767460706,0.00808891099259265,yes
678.5641951577825,1.4538829346783233,-0.8325118643714529,yes
945.6912799729912,1.9270489453355548,-0.5172507685439486,yes
761.0268030375152,-0.4674143386478997,-0.21360321863959505,yes
465.8174442851803,-0.253124856946493,-0.49081949748271725,yes
1466.8790625571091,0.6139548484504953,0.2244238902272746,yes
892.4379711954193,-0.9452225930288014,-0.4437253987716662,yes
305.5610224944986,0.4993452625894488,0.35562696766870094,yes
298.3864857999158,-0.4016841961136337,-0.06643021849801668,yes
99.67465957853915,-0.24188865971911522,-0.5949135302626476,yes
2689.5044083104667,34.2969724628051,-4.833470759349181,yes
339.1340187684423,0.7369182210161891,0.36540362084034284,yes
1409.3452813282365,17.09878300077144,-3.2039706832528316,yes
599.9808309095222,1.5317494335834319,-1.0537071716385384,yes
1171.637192933658,2.6604292170661,-1.2407937086458203,yes
1941.632494348637,4.6001097372528905,-1.1833942320102484,yes
862.9550499268719,1.9966467642923664,-0.18588404316332882,yes
1081.7142168366045,1.7195016808810637,-0.4414535124493941,yes
798.3137672813978,2.068442741178292,0.46274135928074794,yes
1173.7251791026197,0.7726331476544459,-0.2699192328448085,yes
1105.507824931948,-0.2533656096053858,-0.058395922930604506,yes
699.9352318553679,1.6205936849319516,0.2605902122692525,yes
1050.0406793025843,1.3628196317278505,-0.8397126691338472,yes
1496.0643329249588,2.2782800580649436,-1.1788419098593235,yes
1761.0829113610012,2.762867489981625,-1.0110224225990232,yes
1894.34491226749,1.8796619154671372,-0.6715143107934062,yes
1759.9845135144678,3.810562154468766,-1.0703596422381854,yes
906.8378566760425,-0.3891040934569472,-0.013439075073843147,yes
1491.0999972704803,14.759943966538241,-2.819674130476229,yes
347.7450351025549,-0.7354991811308591,0.07570120476934268,yes
399.53253214186964,-0.8726619910799744,0.060503240503804824,yes
199.2876782242327,-0.7041248208901347,-0.08527290502500579,yes
1549.7908243120385,117.57499526781713,-10.310511028675684,yes
1836.371536118983,24.06977906250665,-3.1726111627822524,yes
275.51959493230606,0.15679005755636277,0.004959400173480187,yes
791.2977715393645,0.9078009800108862,-0.041393473755371904,yes
1607.7633051760888,11.03084509304541,-1.8457046268213178,yes
965.9051234947525,0.9496147835885842,-0.53229266066997,yes
1060.7590487391299,2.124609147589645,0.18090051042178057,yes
1089.1887729205841,0.8151128674296348,-0.17481916678387813,yes
2167.6946456441306,1.877868687121774,0.27383387725741715,yes
1333.2439920043678,1.1622184015273769,-0.38617268105009633,yes
2278.10414259669,3.157723758662784,-1.2318683126925174,yes
1356.5620178203185,1.151105595774026,0.27495353462818456,yes
1311.983479368964,1.084139504263324,-0.10371741938666426,yes
428.18602917075543,-0.18944468698123673,-0.16673856411117463,yes
333.9317356411993,1.3112659656575278,-0.9403004142697324,yes
2536.3911211974737,22.426297903082133,-3.7402257447820197,yes
432.9291847147549,-0.32292463461542376,0.34490082140026634,yes
344.25174492700614,0.6337004953911674,0.007947155028833457,yes
1099.9042544667611,0.43520755961609714,-0.8386036776125161,yes
914.53209147505,-0.5324739201537856,-0.16325734770658623,yes
1875.4390848899177,0.796929798039403,-0.28852713713969486,yes
1274.976456820828,1.4776929605634965,0.3436863330275089,yes
1687.607367051304,4.380229180733827,-0.6367973172917272,yes
2673.412408296713,2.7894857377006383,-0.9516607372864887,yes
1744.591259099428,8.417267280487675,-1.8779289186716104,yes
958.1574941186834,0.591582407157325,-0.2872259325989625,yes
1057.4670267105473,0.5288382475120597,-0.5480115146343115,yes
1249.6394936496456,6.123413979554648,-1.4865663257882817,yes
1080.0974599680762,7.463164583918598,-1.9633193115311756,yes
260.3368130939839,0.4364952873053638,-0.6242391084993348,yes
464.2337698004606,-0.1737430079177229,-0.37237572491127924,yes
459.77933623240506,-0.6948758733580496,-0.3016061960909813,yes
3099.248137224062,34.94919139936433,-5.087181845332536,yes
461.7579422188486,0.38156978701343025,-0.9305249680577323,yes
633.8869345094855,2.660434164282501,-1.1259511898615,yes
1479.6260901903306,10.89895618906768,-2.107427626584837,yes
430.1127073772864,0.5089009187187106,-0.721881205436273,yes
991.4983225448552,1.4763803795199468,-0.13288210333944103,yes
1351.6981829717895,8.60368984266118,-1.7676224570847177,yes
631.4088862294523,0.6146741969651575,0.5201752710532483,yes
1369.2053411011086,0.552243166227854,0.38479290106191694,yes
1186.8165204945938,3.3208255416221313,-0.8915097223354884,yes
2126.377640428782,0.8771308692448501,-0.27839984956379915,yes
1160.9567291405044,0.44024737525661983,-0.3959463386717427,yes
1781.981898223114,19.59641796596077,-2.6734660589517,yes
1287.4559362117923,0.4618989693944515,-0.09031198694049243,yes
735.6397637362868,3.7721783753860416,-1.2790762499773036,yes
1237.734983364127,0.4324483015437006,0.8858622750708924,yes
697.3322520967752,23.49392132470439,-2.7375705359867233,yes
765.4449997963262,0.6134270617734141,-0.31428144080812637,yes
904.691497191647,2.539759144396257,-1.1672276695001187,yes
2148.1267549836193,1.3735694640018004,-0.7648143401263664,yes
1426.7990107093315,2.3352474236671705,-1.1295313372344455,yes
2287.981791661539,4.719409369282538,-1.5243683166507944,yes
1741.3933149796685,1.0169478129120177,-0.17827234919830004,yes
2739.8380936695057,0.5581829783416934,-0.2501765447338471,yes
1113.0189966979362,1.727863355949978,-0.248991929453919,yes
956.8849600281876,1.165839893160661,0.3627834572454828,yes
1104.8682821536377,0.09938972749534525,-0.3579574704079195,yes
1154.3479037291745,-1.0150346024620716,0.17055518136446768,yes
749.2763209754017,-1.0815052898509516,0.11586622300075174,yes
1559.66530272015,19.269481419148253,-3.647891325991601,yes
198.23713751788256,1.194526503224285,-0.5136086213522888,yes
1107.7041012233449,1.7081143622057082,-0.5648769236199354,yes
708.0130298374838,2.4263917279461955,-0.9551960657257051,yes
1002.5960059804559,-0.3606471010944139,-0.2786162489552044,yes
915.1686728949926,2.002310529281031,-0.6966041323749118,yes
2333.1457624282884,0.9506241335938745,0.938701156195864,yes
1283.431834188364,0.008809296941403755,0.08884488762533829,yes
810.3816140149796,1.308166253213046,-0.43587569640414175,yes
1540.5990788959061,7.2500819604729205,-1.1187080713441626,yes
1233.0426997111194,5.891370514058561,-1.1590765424891296,yes
1103.9274065318723,0.4305961924043338,-0.7029526002953043,yes
1684.3943944542887,0.15336013860349018,0.6665051763655305,yes
570.4173015772592,0.7519296002938911,0.7958584735143369,yes
332.324900369695,-0.7065453004358822,-0.24255305786408896,yes
1469.344479039795,22.09085768242099,-2.7607641144931323,yes
608.4975250110001,3.8740014218807097,0.1993244853272118,yes
1421.9881104085898,7.803277654755037,-2.032470506328762,yes
456.632627072239,0.21813347998324062,-0.029324496440026562,yes
873.1327200896762,0.395627702263488,-0.5751036422625,yes
2043.8944328908915,13.120802985716086,-2.65535828949516,yes
1635.9311548096757,-0.018016423809130266,0.01914575806705914,yes
1548.0672137913177,1.3252024771211994,-0.5304321045962517,yes
1950.1920698419026,0.5327724739290969,0.6392630996807979,yes
1403.907337206138,0.13071194117196283,-0.13298505504151895,yes
2022.6675254580828,3.6950365182481857,-0.3196293304043349,yes
827.2761600862726,2.202082655875257,-0.00266497252740327,yes
986.898802065195,2.1191469223450605,1.2644306204477558,yes
1549.459442629724,17.339745836587383,-2.9470936335886533,yes
223.33117106081147,0.03245393609950753,0.5082044032728107,yes
554.114315137932,-0.1993316872354418,0.6451978712884264,yes
200.8372554416182,-0.42494720157519517,0.3197637574878941,yes
704.7169166664742,-0.44340707273205293,-0.33722542190511107,yes
186.54262952845806,0.006540885721824541,0.3885019875515961,yes
147.86454145613544,-0.17576254858992124,-0.23604890685919744,yes
220.0812513215119,-0.6299472552474912,-0.4179187500241547,yes
2701.3295564982814,31.97802604655898,-4.8577053580085625,yes
266.4426748734316,-1.00937718440974,0.2531398187778592,yes
673.1495079288629,0.13090485243373795,-0.3525190796300071,yes
410.9557706494438,-0.2311829797417584,-0.4487064755222495,yes
1147.1667775530482,60.84980673365957,-6.911677921828451,yes
2600.173724816814,6.202697139593393,0.6641728461061328,yes
1146.416451866,0.22807593218802724,-0.1586767419290892,yes
651.3551101766552,-0.15058374651111173,-0.12375148089009781,yes
997.673041779523,-0.6303941395269561,0.4423848412309263,yes
2551.364213832978,0.9666580809860883,-0.24467768784325156,yes
1733.903503607342,5.954887332012838,-1.682317889871352,yes
983.8686832028287,2.439506782481491,-0.508449455837543,yes
1608.1062901037612,8.522432563481386,-1.9615261139997682,yes
1507.7965231638004,2.572553751863917,-1.1289582282312756,yes
1875.1143768356342,2.1886301164783024,-0.701741172090478,yes
2200.4064077432668,-0.3478612961651364,0.38442080478879,yes
873.0588932931532,-0.9959073598950354,0.060727912968269154,yes
366.27604327035584,-0.04455971318406515,0.4463752591250117,yes
4083.982898363978,41.200548904943105,-5.758227827902845,yes
307.8612777890451,0.7708602777391609,-0.3500845318929169,yes
208.14109154360358,2.8850352703679674,1.0252523483637015,yes
1833.7116084095705,1.375325518446946,-0.8418916781742395,yes
98.88227132618445,-0.08919770728978849,-0.6099669503221683,yes
2360.522300201138,25.422687024540757,-4.242197539370951,yes
183140.9569820297,-1.4427192474686363,-0.024231042211432376,yes
197806.95105333248,-1.4473019089983872,-0.027336906988497226,yes
196379.4541448964,-1.4303929667642041,0.0021455754080554235,yes
196944.41231238656,-1.4428988582269793,-0.024754148065394402,yes
200465.9001587424,-1.441001582814534,-0.02761592752301499,yes
213911.02159967303,-1.4470574219002361,-0.02769437517010892,yes
226521.11648028716,-1.4402809093278777,-0.023697670084486883,yes
237908.8934159356,-1.437941487801294,-0.028485812092974756,yes
206021.21887174493,-1.4343845691499248,-0.02495101034630641,yes
243773.71672099602,-1.4061652387084276,-0.01662816018993836,yes
187910.5204582819,-1.4372064464966354,-0.01577488532211495,yes
196903.46293420557,-1.4337102800375354,-0.019788868356969663,yes
194419.88498824308,-1.449737310323365,-0.022316471582492312,yes
180092.92578808084,-1.446051784253131,-0.022176818681612188,yes
179092.7485536649,-1.446596674723664,-0.017270652640157723,yes
188715.58341201447,-1.447361355241407,-0.019557939404693463,yes
192715.87100344087,-1.4345846782285456,-0.01553601341124765,yes
210653.0482935898,-1.4438514915803011,-0.01768263184077281,yes
202656.61680584913,-1.439204574317338,-0.018190900706829362,yes
202412.03250568686,-1.4403349680568676,-0.021796785554258045,yes
198105.79170847996,-1.4377349859200328,-0.017781518345797116,yes
196950.3978463973,-1.4385433106307233,-0.017529060237271528,yes
206689.48879277363,-1.437833810525773,-0.0191799496577773,yes
197156.06801093114,-1.4351894385390684,0.006237752671516173,yes
211423.93561483413,-1.4236587035866635,-0.02024152094117924,yes
245675.173334316,-1.4405952133142532,-0.020335220173988332,yes
204558.06302771857,-1.4376303083824435,-0.01873822360918292,yes
244929.60782175942,-1.4470426190688206,-0.01867362805793547,yes
245055.49969621727,-1.4305820510351037,-0.02142824545822609,yes
222279.05870609003,-1.4357770452363936,-0.018825292445278387,yes
207616.1457220742,-1.4328954060356638,-0.020643571895888668,yes
203022.19226126798,-1.4089192269467474,-0.014317233203416966,yes
195567.26754301868,-1.4382019935309043,-0.023156852481861043,yes
210680.6079922106,-1.4446891529288164,-0.02563401649354978,yes
201264.36079453438,-1.4494401472959828,-0.02229691611848734,yes
219488.74825279566,-1.4464580376146812,-0.015081307445007417,yes
215395.59736950626,-1.441028092999948,-0.01431983557384485,yes
208111.14279506827,-1.4432228929619328,-0.01276003612014985,yes
203663.45757370754,-1.4370083893796632,-0.016649490234517235,yes
166108.67535450682,-1.4417401680674033,-0.008293361997332205,yes
167454.63934347348,-1.4372943307557178,-0.015410679289870732,yes
181125.80942954763,-1.4266877962788596,-0.020019949496403084,yes
197462.61638054694,-1.4263496293945097,-0.020018509700510917,yes
207763.0054972318,-1.4525138332162881,-0.019528620654145203,yes
201962.76742215047,-1.4525628955884577,-0.016475049142874263,yes
199636.68893570063,-1.4475735262073242,-0.00953432291769451,yes
212627.20112147683,-1.4499275545446266,-0.012109595603033894,yes
199549.18379829533,-1.4355199055063492,-0.0200463760447059,yes
210240.9223156773,-1.4476716104213654,-0.012788316852749962,yes
213744.37797637947,-1.4517426278755923,-0.014307268887768405,yes
205016.9054440684,-1.4478196214368453,-0.0189852796215886,yes
210347.15661854015,-1.4424878380584483,-0.024829255169548863,yes
196121.78710892226,-1.4390462896404481,-0.019666301565945014,yes
196787.45741306193,-1.4416621413251014,-0.02133260956583232,yes
204500.63827470923,-1.4480690181508822,-0.01877612525638731,yes
187883.91184947046,-1.4464924948140023,-0.020130857727195355,yes
204504.1558063346,-1.443732504714502,-0.02135690556911541,yes
204412.80442438944,-1.4501990315045854,-0.018587415690116897,yes
201001.24861670996,-1.456438521354496,-0.04832919722432378,yes
205807.698329848,-1.4477600020966739,-0.019646788414870036,yes
186946.74667220138,-1.445689999270781,-0.01808935213888212,yes
190814.29641631816,-1.4443891863464973,-0.010063141571850644,yes
198760.00979141344,-1.437801654296233,-0.008399219602501224,yes
181537.46296721912,-1.4399459351934036,-0.015747017721275736,yes
194215.3653116487,-1.4463694360996742,0.03210865920795285,yes
189986.73333934761,-1.4423505736991447,-0.019304600324074807,yes
187871.6651577067,-1.4429962779101306,-0.018297249532005937,yes
200186.40632434696,-1.4510496648404418,-0.018762611731576083,yes
191961.24128634212,-1.4468743611510366,-0.017904397252688355,yes
200083.6013564848,-1.4461316969819784,-0.01784180122067598,yes
201349.20706268202,-1.4518589789889045,-0.018170047103700085,yes
190226.50390513838,-1.444110788774004,-0.01623366228081864,yes
203836.75865395658,-1.4408935668554073,-0.009322003836862103,yes
187524.56129449263,-1.4288801087111072,0.0009886460787459333,yes
187925.94780184864,-1.4468350194746993,0.022834674089042398,yes
202782.8972692138,-1.438849883846582,-0.010677930046056775,yes
188363.28886379284,-1.4120109218244972,-0.024155194830022316,yes
184695.49665053003,-1.4572327354172534,-0.023652096574360404,yes
188710.60311543714,-1.448113447774828,-0.021836883199687768,yes
187148.24099339344,-1.4490837111614823,-0.02289146270151231,yes
200013.21308102531,-1.4424756782526864,-0.01933085011466542,yes
189071.82841272594,-1.4502459243720216,-0.02193906254260421,yes
186433.98397766642,-1.44574833950752,-0.021193557369270977,yes
194954.32917772804,-1.4419265316597643,-0.01673722569996036,yes
185852.2256841525,-1.4468277122960655,-0.025105275408580537,yes
199095.41522720573,-1.4487002691614492,-0.018481566528965727,yes
191973.35127423468,-1.4535289944802656,-0.026702089610987193,yes
190757.2485883165,-1.4425006256633612,-0.022088242040381848,yes
239061.26149419494,-1.4307104623684028,-0.0225883653333747,yes
239210.35229899763,-1.4426352058570275,-0.06045386954681038,yes
240501.061976139,-1.4354176268751064,-0.02581733125707555,yes
248692.85848956328,-1.439939035041455,-0.030627231574422986,yes
228938.44987452062,-1.4407087198582247,-0.027825704448432825,yes
239125.39560930128,-1.4386433748464795,-0.028045007424266574,yes
234242.99617687473,-1.4403867582167267,-0.029231893853095412,yes
228757.06456015102,-1.4366912543829005,-0.02975669511867381,yes
242274.87935509527,-1.4258611169964972,-0.036626642149151324,yes
241518.04190924,-1.436935312891373,-0.02915896085610054,yes
252097.0497573521,-1.4363329618757708,-0.02746861580900727,yes
246975.08125110288,-1.4369503868423117,-0.02867551846689739,yes
237543.35835766504,-1.4362583241817595,-0.02653393214973425,yes
247307.2051425993,-1.4327428925996928,-0.02808124035954505,yes
240637.97319450678,-1.4381428820614894,-0.0326865080346054,yes
54052.15284712374,-1.5181298421215315,0.005365136875937598,yes
55011.909283402536,-1.4799159862117175,0.012749362460206812,yes
66480.4749358785,-1.5318600816845862,0.0085689814368034,yes
62440.70806777167,-1.5422258025615805,0.0033351994023939555,yes
64994.973849408074,-1.5346791896770748,0.007279743514603874,yes
66801.28144643016,-1.5356351477673096,0.005055110013027238,yes
62004.033786012245,-1.5310062853856905,0.008180978995130275,yes
55634.68361620117,-1.5256528745589706,0.006819873208952293,yes
53989.79386410835,-1.5292688050209022,0.006912295220880679,yes
53365.73144037038,-1.5248010710204598,0.006186156368737944,yes
55524.9445053453,-1.5233284813341916,0.007372053971313089,yes
49510.579783779795,-1.4890836444485251,0.009306248348561813,yes
64318.8104462305,-1.5267312636213566,-0.02634283775156442,yes
64957.61750232735,-1.5345350649209972,0.0076013813262464725,yes
62826.237114440344,-1.534109829507966,0.005442417550387494,yes
66916.02515511269,-1.539428997084779,0.004969393969381988,yes
63882.40819297987,-1.5360725078365638,0.008346942019209594,yes
55369.78930333316,-1.5211005541835936,0.03565346698137457,yes
55742.55786533769,-1.5318126840858424,0.005816471194662778,yes
53548.327048193736,-1.5314249459216318,0.010239939965148288,yes
51148.27530889993,-1.516219294533795,0.010042418176122971,yes
46326.9988287426,-1.5099127653366933,0.009398587722513637,yes
62062.40534718428,-1.5450446760665029,0.005942764521970304,yes
66513.37303460803,-1.5300982034701338,-0.02018232119980211,yes
62792.79884993436,-1.538681957914633,0.005518074172873248,yes
64851.83626252067,-1.535101705515892,0.011094378593806414,yes
66407.38639749654,-1.5346971192938108,0.008147914600154873,yes
56981.54193283206,-1.5202462600954438,0.006851317940451634,yes
55170.94419420112,-1.5196488497737477,0.039512194352964596,yes
53923.3635199247,-1.5300737280556238,0.006176533166361986,yes
47566.81170411429,-1.5171076319039407,0.007337178215775167,yes
45261.36896612214,-1.5261714464700133,0.010488423885423571,yes
58939.15162490273,-1.5123485852821608,0.005313707944749259,yes
64570.18039390145,-1.532727685917375,0.008892830336064368,yes
65389.08438169225,-1.5334394310160653,0.008376622483364992,yes
63101.51088245697,-1.53430328822825,0.00869563308115863,yes
66791.98596078188,-1.5369514398196802,0.007621350579889657,yes
59686.48729081188,-1.520536072969871,0.007903175051378471,yes
54117.74592307739,-1.5282304898941457,0.008171690504430078,yes
55398.78639140071,-1.5320084259651658,0.008600207145587449,yes
45786.10070617297,-1.5117197514427536,0.009320050300243379,yes
44972.93354741107,-1.5234692405090455,0.01201745672832649,yes
55838.69238265981,-1.5089132578871625,0.006060085749503039,yes
63601.008842578805,-1.5361368777468694,-0.020889844656143547,yes
66464.56312937441,-1.5360089818672087,0.005542544730886158,yes
62430.357774720265,-1.5296105973230187,0.008407669178460817,yes
65323.067903251445,-1.5280363947965583,0.008635427910419163,yes
65506.01405380934,-1.529410832928096,0.01004874407711745,yes
53469.44888761826,-1.5318619614843632,0.010453176764750022,yes
55368.28715056361,-1.529110377782366,0.009309789442150634,yes
49815.714507781115,-1.5149334494127638,0.007070148425125539,yes
43759.70733997455,-1.5290763140372332,0.010686735980472357,yes
17135158.308817714,-1.544020430141736,-0.11418673792408263,yes
17101827.754420117,-1.5441400015842246,-0.0877333186240034,yes
17118334.483825512,-1.5458469453155,-0.0755691092319954,yes
17195306.90424964,-1.546855233010839,-0.07609590872131673,yes
17097887.328798432,-1.538021200233526,-0.10239483030607771,yes
17108800.68651505,-1.5435086103044575,-0.07624532140404523,yes
17201862.481491957,-1.5481276423735533,-0.06331232873777029,yes
17160431.821322672,-1.5453523107832243,-0.07611235968061722,yes
17079434.942387886,-1.5397081322170905,-0.10171267903548709,yes
17196428.87035698,-1.5488402981370142,-0.07544631150594226,yes
17296675.987248234,-1.5599171148925772,-0.03248975675904571,yes
17148882.790152766,-1.551195220244097,-0.06186688798984151,yes
17145478.431138314,-1.546562925200202,-0.08727010664624874,yes
17203913.918402098,-1.5498079730968577,-0.07456836115707006,yes
17164370.39097184,-1.5503907367557492,-0.048358897077847,yes
17120729.756783687,-1.542504766814269,-0.08742430720775667,yes
17041901.000659212,-1.5389491820153196,-0.08796050639451385,yes
17119339.697625734,-1.5421413614173693,-0.08699680668655639,yes
17131309.885298993,-1.5465007782473663,-0.06134681269651279,yes
17188392.03018606,-1.5469259261776944,-0.07425091304125807,yes
17138999.540126845,-1.5436699228074713,-0.08762308956989333,yes
17100788.709722757,-1.542674915193546,-0.08768681450745043,yes
17155433.556203477,-1.5442720394064828,-0.08778457494727158,yes
17136211.908253163,-1.5419797031554254,-0.10070273771111016,yes
17119275.534850843,-1.5457579517609306,-0.075454141058827,yes
17181013.867465958,-1.5498148061334662,-0.062169272319747546,yes
17165833.65306768,-1.5454683070098976,-0.08788122840124546,yes
17123937.995921228,-1.545879137215778,-0.07502699114379636,yes
17115716.552187312,-1.540596072221789,-0.1011217551402748,yes
17192452.191344492,-1.5489463417041927,-0.07471208367017494,yes
17122658.6168151,-1.5461042908028126,-0.07500528735298799,yes
17154494.748705465,-1.5505700042133868,-0.048894061968005116,yes
17203832.408168864,-1.5511049623591284,-0.0609374752385995,yes
17129295.866889436,-1.5448311121304168,-0.087703563257926,yes
17156252.112577856,-1.5493520294287033,-0.06231886265644396,yes
17193604.197991803,-1.5495390760619023,-0.0753376843388291,yes
17154213.924102485,-1.5460203615501762,-0.08855764551951145,yes
17105801.542186625,-1.544303397383684,-0.08880296698641574,yes
17198198.452661157,-1.5510885970640957,-0.06275811778902403,yes
17188367.117027316,-1.5483808188054597,-0.07536040950528897,yes
17123919.390906867,-1.5462589831601883,-0.07569504813845991,yes
17135808.015873656,-1.5444317725619063,-0.08851077424255699,yes
17184626.670650516,-1.5477617316578787,-0.07516430865136996,yes
17106007.79231139,-1.5419426366949602,-0.08835386252653052,yes
17125992.952126227,-1.5446401159777254,-0.07541045111128512,yes
17153785.548668966,-1.54307302554418,-0.08873049645565778,yes
146927.50236020455,-1.4982429644745625,-0.02119490245260068,yes
116288.03494679478,-1.4873720628228586,-0.004681248849638988,yes
122588.23437926793,-1.4930742601547906,-0.009688401806800022,yes
126559.13671188956,-1.4869968120721178,-0.01101104169138132,yes
141895.71999370735,-1.491770802113537,-0.01384623340837894,yes
140808.70563394128,-1.4907115829422732,-0.01767068640995441,yes
133956.585212796,-1.4879304945117344,-0.010773976576149468,yes
136171.26028149461,-1.4903838515047754,-0.012240577503405613,yes
141420.89213840538,-1.4994476851456306,-0.018289547496917535,yes
139185.0383606986,-1.4900148112289053,-0.017420759856667543,yes
152315.57490467993,-1.5026459618066916,-0.018859774931407627,yes
146525.88571476785,-1.494899688721195,-0.021441813589419375,yes
141129.13940075418,-1.487560907263021,-0.018166067135969747,yes
149567.11688198286,-1.4998633965626358,-0.02130068406532912,yes
143602.80911104425,-1.4910111330638645,-0.019775678372390464,yes
143821.31663168935,-1.4967749376361459,-0.016217715309098834,yes
150261.03972043953,-1.4956897790761574,-0.02381812125110644,yes
145186.62961725678,-1.4935431036244038,-0.01798698252519585,yes
134281.3387587212,-1.4845230423741487,-0.014758010531069942,yes
136389.78997537988,-1.489890757034998,-0.01659250482539604,yes
133792.09351247922,-1.4868673169333966,-0.01346188782700063,yes
141038.06831844765,-1.4949388730664146,-0.01688508379780731,yes
144942.9203636803,-1.485710627493395,-0.014451780182790369,yes
138444.62772689702,-1.4931495952176685,-0.01728653272529467,yes
116896.07041020111,-1.4969528202251254,-0.008450861020659565,yes
139745.57928224257,-1.4880536654672396,-0.016829286610371315,yes
147030.47649197938,-1.4924009340989393,-0.01889831010873909,yes
152414.18446962687,-1.4978338856670375,-0.02191963136059317,yes
145458.36163996233,-1.4944076678200948,-0.01743195773920482,yes
142478.74803977914,-1.4959511009832018,-0.018273025760645965,yes
143915.26655925764,-1.488173544067948,-0.022732977122247255,yes
117164.25350439007,-1.4840447029853001,-0.007060127728401761,yes
111853.23765315718,-1.4975975001778081,-0.0059161322284097964,yes
112475.18541628963,-1.4750561954699868,-0.005184601811716325,yes
137087.91470841828,-1.4958065719811844,-0.016592464227014006,yes
140139.4396820446,-1.4908273131365783,-0.020506136692129955,yes
140724.0840172671,-1.4858745943143075,-0.013487285255909864,yes
139397.1870649712,-1.495452798085156,-0.019777088828013725,yes
146222.97939521202,-1.4983779529175616,-0.02040371177108885,yes
140875.6655991078,-1.4560699208319243,-0.018250141168930676,yes
119301.88259549561,-1.4988335195324969,-0.010610821280094216,yes
116695.74087501719,-1.4882543640594887,-0.0074781751529123235,yes
134658.33820185036,-1.4857650032368757,-0.01579753867088178,yes
153511.56214678296,-1.5106977132653028,-0.024108215356405723,yes
153169.86698870867,-1.4878933737665991,-0.022645617565216325,yes
141810.16368895464,-1.4967667366742887,-0.01744148786115626,yes
133639.5384283908,-1.4948600672500139,-0.01653727511432124,yes
143356.3004921942,-1.4935686934773449,-0.014253135082795857,yes
116432.40607377776,-1.4849013643019615,-0.010912281289925071,yes
112257.75576516523,-1.491135820640416,-0.005059418279531459,yes
117424.80596699189,-1.4922043607572573,-0.006521692672529939,yes
147557.83791356228,-1.5081870451559038,-0.023969774227827843,yes
145951.9649160888,-1.4953372701327323,-0.020250035099689267,yes
145027.27805639117,-1.5011232558427128,-0.021305714853455233,yes
143655.0294764099,-1.4995460614487939,-0.02131222409961532,yes
154617.77392670733,-1.4258964497421662,-0.019457608092127526,yes
156334.5871522519,-1.5009117932978435,-0.020346047730393023,yes
143580.85031198512,-1.492618408393046,-0.02012292487971973,yes
142327.22742911644,-1.4968641707607673,-0.016765222743462423,yes
145611.3982162327,-1.4915255947859298,-0.021400242957568517,yes
144452.2833520463,-1.4947221274953828,-0.013087884242651861,yes
143884.12863376553,-1.4953062221509423,-0.019056733150161643,yes
142744.08487304542,-1.4968600400545757,-0.018070420799460283,yes
140720.85570865235,-1.4924370843359027,-0.018556091089206996,yes
148669.72564872532,-1.5002876411218355,-0.021506145229269743,yes
149420.99814692605,-1.5037946064513499,-0.020746646430965396,yes
145807.76920847694,-1.4993217343482301,-0.017616711908048224,yes
159833.40833879227,-1.5065367667399419,-0.028919961137755683,yes
151098.87276729982,-1.4984464461128608,-0.018476722656852455,yes
152212.45297878317,-1.4923483761010883,-0.022923037759385846,yes
148112.69694476383,-1.4982837371222715,-0.017179813739123948,yes
148335.3468820924,-1.4957572848691008,-0.017762504500903907,yes
152690.79364667297,-1.500769290409136,-0.02529589707469408,yes
146302.73561968695,-1.4892941336210561,-0.02339649811746492,yes
109119.63191778492,-1.484520908640057,-0.0026040998382697066,yes
111500.71784692397,-1.4916348310938552,-0.00647590302806281,yes
117829.56498868536,-1.4901399603923746,-0.006213967755377286,yes
146954.16134798797,-1.4885680269139945,-0.018333909178586547,yes
151964.72433068804,-1.464602153440498,-0.010826400107862165,yes
149170.1275454423,-1.4958553345207448,-0.01792457254589359,yes
145317.60476138155,-1.5011941172351324,-0.020523600361230528,yes
149618.47159996803,-1.501549132179766,-0.020879552979568703,yes
149886.52177559637,-1.4977749626508419,-0.01565765474237281,yes
148210.03669308196,-1.5064123957892828,-0.02303620159970572,yes
152897.44835116708,-1.4909264865558292,-0.0136182265155298,yes
140106.64015644032,-1.4549000643728955,-0.020253519766162433,yes
187939.01437128353,-1.4241013436541605,-0.0159248892382643,yes
235148.30070514831,-1.4914119862674413,-0.011702272358075526,yes
238466.26929677214,-1.4970884523949617,-0.00900760171111487,yes
190487.94207060302,-1.4656972406585134,-0.012651157257486603,yes
196616.82573746704,-1.4783770564136147,-0.014158992293941877,yes
162445.91824623026,-1.4405040027082554,-0.011994669679151988,yes
143673.34303254102,-1.452667594719897,-0.00863435744830965,yes
155978.48022823804,-1.4243493711992672,-0.009151955671587062,yes
182388.96520349733,-1.4601390305203816,-0.0021912576847138094,yes
136736.20729722592,-1.48075819632255,-0.009707460731592479,yes
135647.29860695713,-1.4728415391681335,-0.00926902502660773,yes
188662.99795682332,-1.2506014571701272,-0.0014472467836553335,yes
243260.90189621696,-1.4341255624551263,-0.008644567151870343,yes
445151.046624765,-1.3163033541447786,-0.05187652893869242,yes
334024.9836606278,-1.4735379883266293,-0.02077140982343558,yes
314236.7146305379,-1.4836530470553073,-0.017913301097765445,yes
295972.5011881475,-1.4965798830502628,-0.010806365126540558,yes
319170.4284756364,-1.4824784518129248,-0.007463341945278046,yes
194788.5367115335,-1.30127447928376,-0.02305703172076538,yes
96531.62846561708,-1.4541396671135554,0.00029207628818693157,yes
108091.46950251861,-1.3514125813512068,-0.03406498486741367,yes
144011.59323298623,-1.4737581319691349,-0.018526518072137895,yes
192830.50916124677,-1.441007116069552,-0.01528469795365376,yes
191007.12455268856,-1.47516794235245,-0.010122459673088363,yes
163182.40040130808,-1.4795549094926208,-0.02279791787412975,yes
165948.1754576307,-1.4480412645308145,-0.013512726393486026,yes
176752.9380946932,-1.5011994807458056,-0.020806733480177832,yes
171816.45880475276,-1.4890928077859997,-0.017778955376373532,yes
166820.15808958354,-1.4805612699008117,-0.015778991437018712,yes
182209.82364966648,-1.4919676744891843,-0.01571684795718218,yes
255126.10560952756,-1.473611705799063,-0.03415014373477154,yes
188410.37607258433,-1.3747345885609752,-0.018147218355983027,yes
163503.06763831712,-1.4620059840796624,-0.023083632561154404,yes
172211.25514756923,-1.396369840874144,-0.021330879719518393,yes
156174.83265016405,-1.477331007932487,-0.014213675409496232,yes
143761.8822418609,-1.4531076856790053,-0.021352622463801905,yes
173364.09613677737,-1.4727284626088295,-0.007973588990190874,yes
179183.33233981748,-1.48577883880765,-0.024353111458520857,yes
167012.61799409002,-1.4892329788301348,-0.020061346943056054,yes
186384.9106486498,-1.480506699371706,-0.009916851052841322,yes
215614.81207431862,-1.41623210174665,-0.012986862495735213,yes
223011.38097447756,-1.258683000234264,-0.01854411528876637,yes
130311.70879403283,-1.4029733804019588,-0.013741997056326559,yes
134289.23577801252,-1.4466855960376637,-0.01070936296860237,yes
140358.42309891662,-1.4423581119569724,-0.00829295840695099,yes
133019.20820507364,-1.4329575218129549,-0.012720435303650506,yes
124551.48538086275,-1.439562125031074,-0.01187448869968139,yes
138384.188653208,-1.4397564852856202,-0.007006465771318146,yes
136266.91087364804,-1.4560687277181308,-0.013367805744805682,yes
157428.03761587146,-1.4624942165366188,-0.009019270094327283,yes
159816.51934724348,-1.4591082985504666,-0.010317252088106993,yes
157751.29044336168,-1.4751279527486498,-0.01570924648442759,yes
142250.22226726837,-1.4389353867926813,-0.01041391994584496,yes
143000.12712235498,-1.4472553625678388,-0.012117634598874369,yes
169843.24443445058,-1.4095979756453743,-0.005173077191639594,yes
154361.35768384874,-1.45498055133295,-0.006643853610362511,yes
131082.89486862498,-1.4484033336468727,-0.010770680038623403,yes
133769.84904976317,-1.446918588463198,-0.01152039339774366,yes
122894.20160248641,-1.4404815720625919,-0.005390337510966464,yes
103748.65010670306,-1.4187604045302271,-0.004018505989428585,yes
165015.52736333897,-1.39773102558942,-0.001688559575488975,yes
111947.74746155413,-1.4225453423776049,-0.011225171835676508,yes
145683.41230135591,-1.436182871533643,-0.014421572965153777,yes
133787.19135509912,-1.4316955056166796,-0.010269365225731006,yes
124156.25579725431,-1.4450090807314637,-0.011912504726076125,yes
101327.38178991887,-1.4139653498135192,-0.015224519818496452,yes
89946.70771951458,-1.4129033105354714,-0.0032062485544291862,yes
75521.39573873147,-1.4246218621674474,-0.006167186625785628,yes
73144.16649384957,-1.39406447148856,-0.0021274986434508085,yes
75930.58295737446,-1.407792923079945,-0.007271292107752001,yes
68249.13120411409,-1.4058665015973226,-0.008705687594536927,yes
72629.32484415671,-1.404139645935425,-0.0018684595004479212,yes
74512.26706888087,-1.406667121037865,-0.002641353860432565,yes
68831.51543942935,-1.3873618924848183,-0.0038887515417822425,yes
69451.88525217393,-1.3947530500340284,-0.004416598750731206,yes
73428.72642690277,-1.395333321156309,-0.003306927012857052,yes
73634.1879290772,-1.4053017421313752,-0.00687781414730596,yes
80278.91885040751,-1.409076218844638,-0.002802413237789108,yes
78838.59471419276,-1.4038687641566905,-0.012029887938916071,yes
66978.01200648023,-1.3868215488471087,-0.004059483329931566,yes
78550.31490412136,-1.4069232622967116,-0.003920085617239502,yes
82503.760887288,-1.4194464416007821,-0.0023970101395250206,yes
84656.33617789703,-1.4167054345558425,-0.0045032263251778525,yes
91878.40589875964,-1.414839168013385,-0.009459405480644112,yes
105934.15048100863,-1.4255982027371352,-0.0026953169083632923,yes
111999.29397672146,-1.418110015774329,-0.008210004015065655,yes
108108.49379777524,-1.4257769250585646,-0.01310772204793604,yes
110901.48477459291,-1.416703467921803,-0.006750126644934328,yes
107863.13194348935,-1.4210936955654705,-0.011309684459589244,yes
118824.41499354565,-1.4351679348880266,-0.004306877695809982,yes
113901.72636595284,-1.4198539065507383,-0.012086398809707589,yes
110212.42763459458,-1.4256464447899533,-0.012914198160869242,yes
112288.93514497594,-1.4400246011937383,-0.013574582044209341,yes
114908.71663350133,-1.4249163371079376,-0.008170113233986163,yes
111509.57935154747,-1.4339635912755635,-0.012916241447759807,yes
88882.47016774333,-1.4020103599419378,-0.00272746542436248,yes
81198.88095829496,-1.410649807456112,-0.008904671613749077,yes
83067.76752159795,-1.3891856782901117,-0.002093316691445339,yes
87841.81908446045,-1.3992157324663388,-0.003727676981721572,yes
83409.48893124069,-1.3982461734135114,-0.007081534431933611,yes
86375.068002731,-1.4270148575137431,-0.005151680865087375,yes
76946.82553829745,-1.3974671887889467,-0.0006249322663461856,yes
73683.3060436736,-1.4115747065852637,-0.009772108724262934,yes
82700.61837608094,-1.381131078770888,0.0012085033663584077,yes
80743.32319880679,-1.41353049785084,-0.000508161691500936,yes
80786.83117694911,-1.417727770737377,-0.006182858467476492,yes
92801.53427281782,-1.4152871208326856,-0.00349132694049757,yes
85551.09031875164,-1.4104874841507329,-0.004488819477233797,yes
80986.42742333331,-1.4081580691544786,-0.008601676661734196,yes
81645.05968705975,-1.403479354788268,-0.00028383775234210517,yes
78797.29194596512,-1.3947421329246037,-0.00459633497529638,yes
87494.03200473245,-1.2288586951450173,0.021006485528758983,yes
90652.42396072196,-1.4169657382265846,-0.0029246538143223736,yes
71376.51602345446,-1.4110353846818093,-0.0027282423113633722,yes
74922.76001420016,-1.390837845418611,-0.0035205618370027225,yes
77088.7378310179,-1.414793111913109,-0.007771276843608846,yes
78806.8359892321,-1.4077341124644942,0.0014086204276626644,yes
83594.3950798785,-1.4218428941042178,-0.005323365135561265,yes
80488.89798528787,-1.4031536812566756,0.00014331666872488392,yes
76321.73673585495,-1.4067477984856247,-0.0010076015051569704,yes
83104.24738177838,-1.397654670947352,-0.00334398761907114,yes
81241.88554737446,-1.4251423890131818,-0.011456659522937673,yes
85005.87291297865,-1.4035600341704682,-0.00918150533986587,yes
87361.02919679185,-1.4217797723343166,-0.00764064384137033,yes
81569.59700636003,-1.4022678943855864,-0.00403244636289944,yes
79033.65851424498,-1.395130355249496,-0.006129081044255295,yes
83576.22871218543,-1.4018006950436228,-0.005274793508333582,yes
81853.66982991932,-1.4164585714392035,-0.003871460592040703,yes
86034.52692697535,-1.4123708457755426,-0.002208637815442325,yes
88291.43155160737,-1.3924864315149637,-0.014074947934758877,yes
80668.36069636207,-1.4027751106557589,-0.0002849075385292296,yes
80099.95881208318,-1.4205460610327514,-0.006480259284633756,yes
78774.87281692497,-1.4004074636994999,0.0012703441360506268,yes
79419.52367829195,-1.3970626579224315,0.00044219216895608653,yes
82529.77099203298,-1.4190066914552744,-0.0017773277792298063,yes
80497.32870431742,-1.42274087792663,-0.0026644425987650765,yes
75803.52621019914,-1.4041319173942624,0.0012226073555597187,yes
80727.35138774138,-1.4151451715102723,-0.0016899717431029652,yes
83347.4866161407,-1.3991927878142365,-0.0031842118259362492,yes
84844.01204618928,-1.4060921617794555,-0.0027541643253051365,yes
85468.92856019341,-1.4242762229657808,-0.008016869833895393,yes
84588.18976604962,-1.4044824457621692,-0.004616512834118917,yes
79843.31953703708,-1.3277730983987956,0.0006478530499338778,yes
83544.30169980242,-1.3849682133042969,0.004127458270622071,yes
79632.41819125102,-1.3911906816549582,-0.00019059844547262758,yes
85163.20619172105,-1.410782647640224,-0.0022288818406023514,yes
90400.71674282312,-1.4135947999496214,-0.005966021399466333,yes
82947.51868145369,-1.4051664366238152,-0.0026394096651885432,yes
78231.13397044239,-1.4028312849655964,-0.005147428055637375,yes
85123.99074588755,-1.405116668436965,-0.0027606667828300084,yes
79520.03249396186,-1.4197852762858163,-0.00821983810953197,yes
81973.48811982352,-1.389730824744829,-0.0016983337594317074,yes
79145.86831333961,-1.408537886137924,0.000700409734096484,yes
